HMMER3/f [3.3 | Nov 2019]
NAME  GFP
ACC   PF01353.27
DESC  Green fluorescent protein
LENG  169
ALPH  amino
RF    no
MM    no
CONS  yes
CS    no
MAP   yes
DATE  Wed Jan 17 06:29:49 2024
NSEQ  4
EFFN  0.730469
CKSUM 2098442809
GA    22 22;
TC    22 22.3;
NC    21.6 21.8;
BM    hmmbuild HMM.ann SEED.ann
SM    hmmsearch -E 1000 -Z 81514348 --cpu 4 HMM pfamseq
STATS LOCAL MSV      -10.1760  0.70761
STATS LOCAL VITERBI  -11.1533  0.70761
STATS LOCAL FORWARD   -4.4740  0.70761
HMM          A        C        D        E        F        G        H        I        K        L        M        N        P        Q        R        S        T        V        W        Y   
            m->m     m->i     m->d     i->m     i->i     d->m     d->d
  COMPO   2.69763  4.30115  2.93503  2.68914  3.28172  2.63828  3.44915  2.84888  2.68499  2.48513  3.51365  3.01123  3.14397  3.20595  3.04504  2.76732  2.82518  2.55626  4.62885  3.57508
          2.68618  4.42225  2.77519  2.73123  3.46354  2.40513  3.72494  3.29354  2.67741  2.69355  4.24690  2.90347  2.73739  3.18146  2.89801  2.37887  2.77519  2.98518  4.58477  3.61503
          0.02673  4.03103  4.75338  0.61958  0.77255  0.00000        *
      1   3.10047  4.62569  4.22291  3.83098  3.28643  3.95407  4.52951  2.47827  3.58957  1.85953  1.10377  4.08809  4.41787  3.96236  3.77574  3.46491  3.41011  2.50222  5.14684  3.92130      1 m - - -
          2.68618  4.42225  2.77519  2.73123  3.46354  2.40513  3.72494  3.29354  2.67741  2.69355  4.24690  2.90347  2.73739  3.18146  2.89801  2.37887  2.77519  2.98518  4.58477  3.61503
          0.02673  4.03103  4.75338  0.61958  0.77255  0.48576  0.95510
      2   2.69841  4.76326  3.10178  2.65565  4.21477  3.40362  3.74688  3.53101  1.68825  3.18138  4.05625  3.09982  3.89448  2.91905  2.65115  2.76640  1.89195  3.20817  5.41326  4.14588      2 k - - -
          2.68618  4.42225  2.77519  2.73123  3.46354  2.40513  3.72494  3.29354  2.67741  2.69355  4.24690  2.90347  2.73739  3.18146  2.89801  2.37887  2.77519  2.98518  4.58477  3.61503
          0.02673  4.03103  4.75338  0.61958  0.77255  0.48576  0.95510
      3   3.26326  4.64913  4.66347  4.11749  3.07429  4.42650  4.71759  2.23168  3.91991  1.09724  1.76776  4.40193  4.65689  4.12418  4.07786  3.78032  3.49311  2.35060  5.11947  4.00340      3 l - - -
          2.68618  4.42225  2.77519  2.73123  3.46354  2.40513  3.72494  3.29354  2.67741  2.69355  4.24690  2.90347  2.73739  3.18146  2.89801  2.37887  2.77519  2.98518  4.58477  3.61503
          0.02673  4.03103  4.75338  0.61958  0.77255  0.48576  0.95510
      4   2.91981  5.08734  3.08261  2.61438  4.26561  3.54624  2.14106  3.85175  1.50153  3.34872  4.21071  3.08013  3.96734  2.80834  2.38651  2.91680  3.12761  3.52545  5.37218  4.05803      4 k - - -
          2.68618  4.42225  2.77519  2.73123  3.46354  2.40513  3.72494  3.29354  2.67741  2.69355  4.24690  2.90347  2.73739  3.18146  2.89801  2.37887  2.77519  2.98518  4.58477  3.61503
          0.02673  4.03103  4.75338  0.61958  0.77255  0.48576  0.95510
      5   3.28636  4.63560  4.47006  4.02551  1.75994  4.21720  3.64724  2.92291  3.88215  1.84403  3.54644  3.99537  4.52815  3.96297  3.99177  3.54452  3.50907  2.85927  3.86259  1.40424      5 y - - -
          2.68618  4.42225  2.77519  2.73123  3.46354  2.40513  3.72494  3.29354  2.67741  2.69355  4.24690  2.90347  2.73739  3.18146  2.89801  2.37887  2.77519  2.98518  4.58477  3.61503
          0.02673  4.03103  4.75338  0.61958  0.77255  0.48576  0.95510
      6   2.81638  4.75326  3.33922  2.79655  3.94544  3.59741  3.77064  2.42938  1.45468  2.84488  3.83811  3.23093  4.00683  2.96421  2.61127  2.92370  3.04691  2.86896  5.27130  4.00835      6 k - - -
          2.68618  4.42225  2.77519  2.73123  3.46354  2.40513  3.72494  3.29354  2.67741  2.69355  4.24690  2.90347  2.73739  3.18146  2.89801  2.37887  2.77519  2.98518  4.58477  3.61503
          0.02673  4.03103  4.75338  0.61958  0.77255  0.48576  0.95510
      7   3.20994  4.62751  4.54798  4.01358  3.09918  4.33434  4.63947  2.24737  3.79808  1.31715  1.51832  4.30127  4.60255  4.04965  3.97466  3.69264  3.44851  2.33837  5.10452  3.95112      7 l - - -
          2.68618  4.42225  2.77519  2.73123  3.46354  2.40513  3.72494  3.29354  2.67741  2.69355  4.24690  2.90347  2.73739  3.18146  2.89801  2.37887  2.77519  2.98518  4.58477  3.61503
          0.02673  4.03103  4.75338  0.61958  0.77255  0.48576  0.95510
      8   3.09676  5.23230  2.56550  0.81925  4.59965  3.38212  3.98621  4.08547  2.88733  3.67830  4.64817  3.03386  3.99509  3.20036  3.31055  3.06468  3.40313  3.75400  5.74132  4.46702      8 e - - -
          2.68618  4.42225  2.77519  2.73123  3.46354  2.40513  3.72494  3.29354  2.67741  2.69355  4.24690  2.90347  2.73739  3.18146  2.89801  2.37887  2.77519  2.98518  4.58477  3.61503
          0.02673  4.03103  4.75338  0.61958  0.77255  0.48576  0.95510
      9   2.87362  4.63068  3.57965  3.50053  4.63489  0.52158  4.60870  4.27543  3.70321  3.90892  4.88778  3.74432  4.02677  4.01503  3.91951  3.05049  3.36721  3.77315  5.68570  4.74301      9 G - - -
          2.68618  4.42225  2.77519  2.73123  3.46354  2.40513  3.72494  3.29354  2.67741  2.69355  4.24690  2.90347  2.73739  3.18146  2.89801  2.37887  2.77519  2.98518  4.58477  3.61503
          0.02673  4.03103  4.75338  0.61958  0.77255  0.48576  0.95510
     10   2.23056  1.79264  3.89629  3.53474  3.98867  3.00092  4.33434  3.31135  3.42747  3.11428  4.00701  3.50969  3.74856  3.71563  3.64789  1.51814  2.71599  2.89242  5.42699  4.22147     10 s - - -
          2.68618  4.42225  2.77519  2.73123  3.46354  2.40513  3.72494  3.29354  2.67741  2.69355  4.24690  2.90347  2.73739  3.18146  2.89801  2.37887  2.77519  2.98518  4.58477  3.61503
          0.02673  4.03103  4.75338  0.61958  0.77255  0.48576  0.95510
     11   2.93470  4.43638  4.34257  4.01316  3.67053  3.88533  4.78893  2.05539  3.88338  2.33165  3.61405  4.17682  4.43888  4.23292  4.08022  3.40087  3.29357  0.84623  5.48091  4.22127     11 v - - -
          2.68618  4.42225  2.77519  2.73123  3.46354  2.40513  3.72494  3.29354  2.67741  2.69355  4.24690  2.90347  2.73739  3.18146  2.89801  2.37887  2.77519  2.98518  4.58477  3.61503
          0.02673  4.03103  4.75338  0.61958  0.77255  0.48576  0.95510
     12   2.86219  4.85938  2.80780  2.71067  4.24857  3.29617  4.05989  3.99597  2.97848  3.62553  4.58186  0.90518  3.95700  3.33513  3.33664  2.92472  3.25065  3.60200  5.53645  4.18723     12 n - - -
          2.68618  4.42225  2.77519  2.73123  3.46354  2.40513  3.72494  3.29354  2.67741  2.69355  4.24690  2.90347  2.73739  3.18146  2.89801  2.37887  2.77519  2.98518  4.58477  3.61503
          0.02673  4.03103  4.75338  0.61958  0.77255  0.48576  0.95510
     13   2.87362  4.63068  3.57965  3.50053  4.63489  0.52158  4.60870  4.27543  3.70321  3.90892  4.88778  3.74432  4.02677  4.01503  3.91951  3.05049  3.36721  3.77315  5.68570  4.74301     13 G - - -
          2.68618  4.42225  2.77519  2.73123  3.46354  2.40513  3.72494  3.29354  2.67741  2.69355  4.24690  2.90347  2.73739  3.18146  2.89801  2.37887  2.77519  2.98518  4.58477  3.61503
          0.02673  4.03103  4.75338  0.61958  0.77255  0.48576  0.95510
     14   3.18263  4.96741  3.29382  3.07226  3.40626  3.59059  0.84773  3.91011  2.91147  3.38298  4.44037  3.47414  4.15315  3.44130  3.16634  3.25264  3.49247  3.64234  4.86866  3.35319     14 h - - -
          2.68618  4.42225  2.77519  2.73123  3.46354  2.40513  3.72494  3.29354  2.67741  2.69355  4.24690  2.90347  2.73739  3.18146  2.89801  2.37887  2.77519  2.98518  4.58477  3.61503
          0.02673  4.03103  4.75338  0.61958  0.77255  0.48576  0.95510
     15   2.38580  1.81761  3.84581  3.46570  3.94960  3.13721  4.30127  3.24227  3.35556  3.03199  3.97087  3.55322  1.67751  3.67661  3.59362  2.61181  2.83819  2.88978  5.36507  4.18540     15 p - - -
          2.68618  4.42225  2.77519  2.73123  3.46354  2.40513  3.72494  3.29354  2.67741  2.69355  4.24690  2.90347  2.73739  3.18146  2.89801  2.37887  2.77519  2.98518  4.58477  3.61503
          0.02673  4.03103  4.75338  0.61958  0.77255  0.48576  0.95510
     16   3.46638  4.82248  4.45631  4.20328  0.78402  4.11417  3.95685  2.97322  4.10695  2.30784  3.68143  4.20102  4.57099  4.23179  4.18738  3.72653  3.76850  2.97516  4.16333  2.51228     16 f - - -
          2.68618  4.42225  2.77519  2.73123  3.46354  2.40513  3.72494  3.29354  2.67741  2.69355  4.24690  2.90347  2.73739  3.18146  2.89801  2.37887  2.77519  2.98518  4.58477  3.61503
          0.02673  4.03103  4.75338  0.61958  0.77255  0.48576  0.95510
     17   2.69699  4.85720  2.69183  1.72337  4.26867  3.31263  3.77708  3.59303  2.59900  3.26766  4.13930  2.94488  3.85274  2.95308  3.02520  2.72925  1.88328  3.25878  5.53277  4.19361     17 e - - -
          2.68618  4.42225  2.77519  2.73123  3.46354  2.40513  3.72494  3.29354  2.67741  2.69355  4.24690  2.90347  2.73739  3.18146  2.89801  2.37887  2.77519  2.98518  4.58477  3.61503
          0.02673  4.03103  4.75338  0.61958  0.77255  0.48576  0.95510
     18   3.15591  4.53422  4.55536  4.17934  3.48536  4.23332  4.88040  0.90068  4.01052  2.04192  3.39907  4.40281  4.65177  4.34417  4.18930  3.74628  3.45329  1.86306  5.40708  4.15726     18 i - - -
          2.68618  4.42225  2.77519  2.73123  3.46354  2.40513  3.72494  3.29354  2.67741  2.69355  4.24690  2.90347  2.73739  3.18146  2.89801  2.37887  2.77519  2.98518  4.58477  3.61503
          0.02673  4.03103  4.75338  0.61958  0.77255  0.48576  0.95510
     19   2.71170  4.93674  3.04657  2.49187  4.23142  3.46878  2.81695  3.65164  2.20624  3.19995  4.01820  2.98889  3.86144  2.33700  2.16155  2.72360  2.41994  3.31513  5.37075  4.06603     19 r - - -
          2.68618  4.42225  2.77519  2.73123  3.46354  2.40513  3.72494  3.29354  2.67741  2.69355  4.24690  2.90347  2.73739  3.18146  2.89801  2.37887  2.77519  2.98518  4.58477  3.61503
          0.02673  4.03103  4.75338  0.61958  0.77255  0.48576  0.95510
     20   2.87362  4.63068  3.57965  3.50053  4.63489  0.52158  4.60870  4.27543  3.70321  3.90892  4.88778  3.74432  4.02677  4.01503  3.91951  3.05049  3.36721  3.77315  5.68570  4.74301     20 G - - -
          2.68618  4.42225  2.77519  2.73123  3.46354  2.40513  3.72494  3.29354  2.67741  2.69355  4.24690  2.90347  2.73739  3.18146  2.89801  2.37887  2.77519  2.98518  4.58477  3.61503
          0.02673  4.03103  4.75338  0.61958  0.77255  0.48576  0.95510
     21   2.66030  4.71809  2.85198  2.13000  3.97747  3.39453  3.73647  3.26824  2.58014  3.00305  3.87642  2.39069  3.86459  2.93209  3.00225  2.72957  2.91906  2.07055  5.30907  3.99247     21 v - - -
          2.68618  4.42225  2.77519  2.73123  3.46354  2.40513  3.72494  3.29354  2.67741  2.69355  4.24690  2.90347  2.73739  3.18146  2.89801  2.37887  2.77519  2.98518  4.58477  3.61503
          0.02673  4.03103  4.75338  0.61958  0.77255  0.48576  0.95510
     22   2.87362  4.63068  3.57965  3.50053  4.63489  0.52158  4.60870  4.27543  3.70321  3.90892  4.88778  3.74432  4.02677  4.01503  3.91951  3.05049  3.36721  3.77315  5.68570  4.74301     22 G - - -
          2.68618  4.42225  2.77519  2.73123  3.46354  2.40513  3.72494  3.29354  2.67741  2.69355  4.24690  2.90347  2.73739  3.18146  2.89801  2.37887  2.77519  2.98518  4.58477  3.61503
          0.02673  4.03103  4.75338  0.61958  0.77255  0.48576  0.95510
     23   2.88591  5.30415  2.33168  1.55645  4.62327  3.28062  3.75819  4.12385  2.64542  3.65591  4.50280  1.73553  3.86398  2.92269  3.13604  2.81554  3.16729  3.72517  5.80026  4.36428     23 e - - -
          2.68618  4.42225  2.77519  2.73123  3.46354  2.40513  3.72494  3.29354  2.67741  2.69355  4.24690  2.90347  2.73739  3.18146  2.89801  2.37887  2.77519  2.98518  4.58477  3.61503
          0.02673  4.03103  4.75338  0.61958  0.77255  0.48576  0.95510
     24   2.87362  4.63068  3.57965  3.50053  4.63489  0.52158  4.60870  4.27543  3.70321  3.90892  4.88778  3.74432  4.02677  4.01503  3.91951  3.05049  3.36721  3.77315  5.68570  4.74301     24 G - - -
          2.68618  4.42225  2.77519  2.73123  3.46354  2.40513  3.72494  3.29354  2.67741  2.69355  4.24690  2.90347  2.73739  3.18146  2.89801  2.37887  2.77519  2.98518  4.58477  3.61503
          0.02673  4.03103  4.75338  0.61958  0.77255  0.48576  0.95510
     25   2.84763  5.10356  2.76933  2.45521  4.47763  3.41277  3.69018  3.93511  1.63590  3.45617  4.29864  1.85874  3.90459  2.84098  2.60961  2.83015  3.09577  3.56802  5.56103  4.23990     25 k - - -
          2.68618  4.42225  2.77519  2.73123  3.46354  2.40513  3.72494  3.29354  2.67741  2.69355  4.24690  2.90347  2.73739  3.18146  2.89801  2.37887  2.77519  2.98518  4.58477  3.61503
          0.02673  4.03103  4.75338  0.61958  0.77255  0.48576  0.95510
     26   1.48647  4.27244  3.35956  3.06727  4.21919  3.05177  4.16816  3.53867  3.11094  3.27651  4.16337  3.30128  1.78036  3.43349  3.43406  2.50927  2.79608  3.09650  5.57722  4.35199     26 a - - -
          2.68618  4.42225  2.77519  2.73123  3.46354  2.40513  3.72494  3.29354  2.67741  2.69355  4.24690  2.90347  2.73739  3.18146  2.89801  2.37887  2.77519  2.98518  4.58477  3.61503
          0.02673  4.03103  4.75338  0.61958  0.77255  0.48576  0.95510
     27   3.64919  4.88464  4.63271  4.32080  1.25710  4.39721  3.47943  3.33405  4.16698  2.66349  3.93081  4.07789  4.70603  4.13464  4.20026  3.76671  3.87118  3.25990  3.61914  1.17386     27 y - - -
          2.68618  4.42225  2.77519  2.73123  3.46354  2.40513  3.72494  3.29354  2.67741  2.69355  4.24690  2.90347  2.73739  3.18146  2.89801  2.37887  2.77519  2.98518  4.58477  3.61503
          0.02673  4.03103  4.75338  0.61958  0.77255  0.48576  0.95510
     28   2.97967  5.56009  1.46117  1.42528  4.84552  3.23970  3.79098  4.36815  2.81649  3.86674  4.72347  2.70231  3.86581  2.95848  3.41751  2.85818  3.26973  3.93874  6.01552  4.50701     28 e - - -
          2.68618  4.42225  2.77519  2.73123  3.46354  2.40513  3.72494  3.29354  2.67741  2.69355  4.24690  2.90347  2.73739  3.18146  2.89801  2.37887  2.77519  2.98518  4.58477  3.61503
          0.15844  4.03103  2.04970  0.61958  0.77255  0.48576  0.95510
     29   2.25635  4.19506  3.23847  2.99107  4.20789  1.62002  4.11691  3.55431  3.06665  3.29403  4.16092  3.21894  3.68082  3.38640  3.38251  2.42667  1.90173  3.07805  5.54742  4.32612     29 g - - -
          2.68618  4.42225  2.77519  2.73123  3.46354  2.40513  3.72494  3.29354  2.67741  2.69355  4.24690  2.90347  2.73739  3.18146  2.89801  2.37887  2.77519  2.98518  4.58477  3.61503
          0.03044  3.90303  4.62537  0.61958  0.77255  0.60671  0.78777
     30   2.83446  5.15120  2.56203  1.61958  4.48407  3.34387  3.64552  3.90231  1.85200  3.43295  4.28195  2.84721  3.84849  2.79592  2.66611  2.79261  3.07591  3.54547  5.57530  4.23673     30 e - - -
          2.68618  4.42225  2.77519  2.73123  3.46354  2.40513  3.72494  3.29354  2.67741  2.69355  4.24690  2.90347  2.73739  3.18146  2.89801  2.37887  2.77519  2.98518  4.58477  3.61503
          0.03044  3.90303  4.62537  0.61958  0.77255  0.60671  0.78777
     31   2.80689  4.97271  2.83794  2.47780  3.94870  3.42276  2.60121  3.71081  2.25894  3.22928  4.11043  2.96922  3.88377  1.81816  2.57844  2.80947  3.04115  3.39271  5.22195  3.81421     31 q - - -
          2.68618  4.42225  2.77519  2.73123  3.46354  2.40513  3.72494  3.29354  2.67741  2.69355  4.24690  2.90347  2.73739  3.18146  2.89801  2.37887  2.77519  2.98518  4.58477  3.61503
          0.03044  3.90303  4.62537  0.61958  0.77255  0.60671  0.78777
     32   2.74461  4.44633  3.55787  3.11446  3.09717  3.50148  3.83149  3.09237  2.94395  2.68583  3.69499  3.43747  2.28845  3.34134  3.21749  2.93675  3.03690  2.87583  1.87037  3.15680     32 w - - -
          2.68618  4.42225  2.77519  2.73123  3.46354  2.40513  3.72494  3.29354  2.67741  2.69355  4.24690  2.90347  2.73739  3.18146  2.89801  2.37887  2.77519  2.98518  4.58477  3.61503
          0.03044  3.90303  4.62537  0.61958  0.77255  0.60671  0.78777
     33   2.33791  4.18632  3.48629  3.10965  3.80573  3.12699  4.08464  2.93289  3.06024  2.84057  3.80651  3.33600  3.78620  3.39784  3.36237  1.62748  2.75565  1.96696  5.27940  4.01449     33 s - - -
          2.68618  4.42225  2.77519  2.73123  3.46354  2.40513  3.72494  3.29354  2.67741  2.69355  4.24690  2.90347  2.73739  3.18146  2.89801  2.37887  2.77519  2.98518  4.58477  3.61503
          0.03044  3.90303  4.62537  0.61958  0.77255  0.60671  0.78777
     34   2.67991  4.74264  3.04887  2.61336  4.18685  3.36956  3.69646  3.49180  1.61120  3.14324  4.02745  3.05651  3.85942  2.86818  2.56353  2.74441  2.23084  3.17482  5.37310  4.10946     34 k - - -
          2.68645  4.42110  2.77547  2.73151  3.46326  2.40483  3.72451  3.29381  2.67668  2.69357  4.24717  2.90374  2.73740  3.18174  2.89828  2.37914  2.77519  2.98444  4.58504  3.61530
          0.32835  1.30901  4.62537  1.80703  0.17929  0.60671  0.78777
     35   3.18935  4.64245  4.23859  3.87839  3.14707  4.02105  4.52453  2.35257  3.64584  0.83848  3.16013  4.15092  4.45103  4.00686  3.81699  3.59519  3.48214  2.39788  5.03765  3.76809     43 l - - -
          2.68618  4.42225  2.77519  2.73123  3.46354  2.40513  3.72494  3.29354  2.67741  2.69355  4.24690  2.90347  2.73739  3.18146  2.89801  2.37887  2.77519  2.98518  4.58477  3.61503
          0.03044  3.90303  4.62537  0.61958  0.77255  0.60671  0.78777
     36   2.79161  4.54412  3.40204  3.24531  4.23825  3.22989  4.32043  3.79129  3.30518  3.41491  4.46592  3.54904  0.77274  3.69303  3.54743  2.96000  3.23553  3.43321  5.41665  4.35926     44 p - - -
          2.68618  4.42225  2.77519  2.73123  3.46354  2.40513  3.72494  3.29354  2.67741  2.69355  4.24690  2.90347  2.73739  3.18146  2.89801  2.37887  2.77519  2.98518  4.58477  3.61503
          0.03044  3.90303  4.62537  0.61958  0.77255  0.60671  0.78777
     37   2.82779  4.54225  3.45892  3.03333  1.82448  3.65913  3.74370  2.91199  2.92254  2.38006  3.51435  3.39712  4.08099  2.33501  3.22320  3.00379  3.08109  2.78355  4.46885  2.92614     45 f - - -
          2.68618  4.42225  2.77519  2.73123  3.46354  2.40513  3.72494  3.29354  2.67741  2.69355  4.24690  2.90347  2.73739  3.18146  2.89801  2.37887  2.77519  2.98518  4.58477  3.61503
          0.03044  3.90303  4.62537  0.61958  0.77255  0.60671  0.78777
     38   2.44243  4.50162  2.78077  2.56958  4.21556  3.07406  3.87374  3.73176  2.75849  3.36544  4.20991  2.12888  3.72866  3.08923  3.15229  1.61837  2.84196  3.27677  5.51997  4.17883     46 s - - -
          2.68618  4.42225  2.77519  2.73123  3.46354  2.40513  3.72494  3.29354  2.67741  2.69355  4.24690  2.90347  2.73739  3.18146  2.89801  2.37887  2.77519  2.98518  4.58477  3.61503
          0.03044  3.90303  4.62537  0.61958  0.77255  0.60671  0.78777
     39   3.08307  4.64207  3.80255  3.39411  1.45781  3.87940  2.27736  3.14561  3.27788  2.60793  3.73572  3.59817  4.27053  3.54437  3.52001  3.22971  3.32708  2.99627  3.89684  2.21801     47 f - - -
          2.68618  4.42225  2.77519  2.73123  3.46354  2.40513  3.72494  3.29354  2.67741  2.69355  4.24690  2.90347  2.73739  3.18146  2.89801  2.37887  2.77519  2.98518  4.58477  3.61503
          0.03044  3.90303  4.62537  0.61958  0.77255  0.60671  0.78777
     40   2.65881  4.71095  1.80048  2.47184  4.00245  3.31279  3.81288  3.10956  2.73547  2.99163  3.95641  2.97662  3.85382  3.01831  3.19278  2.73346  2.95929  2.16439  5.40486  4.04771     48 d - - -
          2.68618  4.42225  2.77519  2.73123  3.46354  2.40513  3.72494  3.29354  2.67741  2.69355  4.24690  2.90347  2.73739  3.18146  2.89801  2.37887  2.77519  2.98518  4.58477  3.61503
          0.03044  3.90303  4.62537  0.61958  0.77255  0.60671  0.78777
     41   3.06911  4.40987  4.64246  4.10538  3.32900  4.36870  4.79015  1.55056  3.98690  1.53332  3.14218  4.36778  4.63928  4.21610  4.18515  3.71974  3.31491  1.44899  5.29557  4.13243     49 v - - -
          2.68618  4.42225  2.77519  2.73123  3.46354  2.40513  3.72494  3.29354  2.67741  2.69355  4.24690  2.90347  2.73739  3.18146  2.89801  2.37887  2.77519  2.98518  4.58477  3.61503
          0.03044  3.90303  4.62537  0.61958  0.77255  0.60671  0.78777
     42   2.70570  4.43844  3.42100  2.32863  3.49057  3.65159  3.91668  2.12005  2.82688  1.99037  3.40535  3.35077  4.03601  3.19757  3.17251  2.93508  2.94299  2.34446  5.05656  3.80479     50 l - - -
          2.68618  4.42225  2.77519  2.73123  3.46354  2.40513  3.72494  3.29354  2.67741  2.69355  4.24690  2.90347  2.73739  3.18146  2.89801  2.37887  2.77519  2.98518  4.58477  3.61503
          0.03044  3.90303  4.62537  0.61958  0.77255  0.60671  0.78777
     43   2.19216  4.41504  3.25640  2.73859  3.53485  3.44721  2.75090  2.94336  2.62753  2.61525  2.75415  3.16623  3.87330  3.01519  2.98105  2.72874  2.82206  2.70918  4.96785  3.67482     51 a - - -
          2.68618  4.42225  2.77519  2.73123  3.46354  2.40513  3.72494  3.29354  2.67741  2.69355  4.24690  2.90347  2.73739  3.18146  2.89801  2.37887  2.77519  2.98518  4.58477  3.61503
          0.03044  3.90303  4.62537  0.61958  0.77255  0.60671  0.78777
     44   2.66574  4.67956  3.13218  2.69473  4.14019  3.33646  3.75380  3.58318  2.36337  3.16833  4.05548  3.11719  1.95684  2.94550  1.97018  2.74671  2.96468  3.24622  5.33712  4.08966     52 p - - -
          2.68618  4.42225  2.77519  2.73123  3.46354  2.40513  3.72494  3.29354  2.67741  2.69355  4.24690  2.90347  2.73739  3.18146  2.89801  2.37887  2.77519  2.98518  4.58477  3.61503
          0.03044  3.90303  4.62537  0.61958  0.77255  0.60671  0.78777
     45   2.45408  2.79593  3.83866  3.31890  3.41346  3.40556  4.05944  2.00741  3.20716  2.42661  3.39729  3.52968  3.93231  3.49356  3.45857  2.23105  2.78028  2.26626  4.93805  3.72069     53 i - - -
          2.68618  4.42225  2.77519  2.73123  3.46354  2.40513  3.72494  3.29354  2.67741  2.69355  4.24690  2.90347  2.73739  3.18146  2.89801  2.37887  2.77519  2.98518  4.58477  3.61503
          0.03044  3.90303  4.62537  0.61958  0.77255  0.60671  0.78777
     46   3.02291  4.42992  4.44391  3.88725  3.17208  4.21482  4.56042  2.04165  3.75363  1.41924  2.31516  4.17264  4.49551  3.97753  3.95603  3.54186  3.26067  1.66400  5.10464  3.96768     54 l - - -
          2.68618  4.42225  2.77519  2.73123  3.46354  2.40513  3.72494  3.29354  2.67741  2.69355  4.24690  2.90347  2.73739  3.18146  2.89801  2.37887  2.77519  2.98518  4.58477  3.61503
          0.03044  3.90303  4.62537  0.61958  0.77255  0.60671  0.78777
     47   2.75337  4.91133  3.09960  2.56127  4.29804  3.45639  3.59692  3.69021  1.79597  3.22528  4.06358  3.02281  3.87294  2.74204  1.95627  2.26318  2.97698  3.35440  5.36883  4.11048     55 k - - -
          2.68618  4.42225  2.77519  2.73123  3.46354  2.40513  3.72494  3.29354  2.67741  2.69355  4.24690  2.90347  2.73739  3.18146  2.89801  2.37887  2.77519  2.98518  4.58477  3.61503
          0.03044  3.90303  4.62537  0.61958  0.77255  0.60671  0.78777
     48   2.65149  4.39439  3.43399  3.00669  3.04746  3.48974  3.78112  2.89872  2.90229  2.59162  3.59894  3.34458  3.97398  3.26846  3.20281  2.84638  2.20929  2.68569  4.60983  1.94058     56 y - - -
          2.68618  4.42225  2.77519  2.73123  3.46354  2.40513  3.72494  3.29354  2.67741  2.69355  4.24690  2.90347  2.73739  3.18146  2.89801  2.37887  2.77519  2.98518  4.58477  3.61503
          0.03044  3.90303  4.62537  0.61958  0.77255  0.60671  0.78777
     49   2.70267  4.47532  3.38272  3.28588  4.42808  0.68348  4.40449  4.03493  3.47133  3.68528  4.66111  3.54696  3.86744  3.79304  3.70422  2.87542  3.18627  3.55734  5.51537  4.53093     57 G - - -
          2.68582  4.42340  2.77524  2.73080  3.46085  2.40533  3.72610  3.29469  2.67706  2.69394  4.24325  2.90399  2.73775  3.18179  2.89853  2.37927  2.77469  2.98531  4.58255  3.61490
          0.32835  1.30901  4.62537  3.16435  0.04316  0.60671  0.78777
     50   3.02214  5.15557  0.87522  2.35359  4.53661  3.23356  3.95757  4.13168  3.04740  3.73448  4.71307  2.91157  3.88849  3.19663  3.56792  2.98092  3.36130  3.76754  5.69931  4.40422     92 d - - -
          2.68618  4.42225  2.77519  2.73123  3.46354  2.40513  3.72494  3.29354  2.67741  2.69355  4.24690  2.90347  2.73739  3.18146  2.89801  2.37887  2.77519  2.98518  4.58477  3.61503
          0.03044  3.90303  4.62537  0.61958  0.77255  0.60671  0.78777
     51   2.70267  4.47532  3.38272  3.28588  4.42808  0.68348  4.40449  4.03493  3.47133  3.68528  4.66111  3.54696  3.86744  3.79304  3.70422  2.87542  3.18627  3.55734  5.51537  4.53093     93 G - - -
          2.68618  4.42225  2.77519  2.73123  3.46354  2.40513  3.72494  3.29354  2.67741  2.69355  4.24690  2.90347  2.73739  3.18146  2.89801  2.37887  2.77519  2.98518  4.58477  3.61503
          0.03044  3.90303  4.62537  0.61958  0.77255  0.60671  0.78777
     52   2.72321  4.93027  1.75195  2.29524  4.50845  1.69215  3.83813  4.01237  2.83904  3.59865  4.45999  2.82741  3.78927  3.03442  3.35389  2.72223  3.07323  3.58006  5.71908  4.35931     94 g - - -
          2.68618  4.42225  2.77519  2.73123  3.46354  2.40513  3.72494  3.29354  2.67741  2.69355  4.24690  2.90347  2.73739  3.18146  2.89801  2.37887  2.77519  2.98518  4.58477  3.61503
          0.03044  3.90303  4.62537  0.61958  0.77255  0.60671  0.78777
     53   2.72879  4.45343  3.47438  2.94654  2.30962  3.63183  3.64613  2.93907  2.22960  2.56069  3.53676  3.31825  4.01116  3.16943  3.13040  2.90380  2.95906  2.73558  4.41417  2.33142     95 k - - -
          2.68618  4.42225  2.77519  2.73123  3.46354  2.40513  3.72494  3.29354  2.67741  2.69355  4.24690  2.90347  2.73739  3.18146  2.89801  2.37887  2.77519  2.98518  4.58477  3.61503
          0.03044  3.90303  4.62537  0.61958  0.77255  0.60671  0.78777
     54   2.52485  2.02272  4.20517  3.74928  3.53451  3.46226  4.41267  2.21763  3.59462  2.36952  3.49029  3.81251  4.06418  3.87824  3.78796  2.88561  2.90629  1.61668  5.18969  3.96622     96 v - - -
          2.68618  4.42225  2.77519  2.73123  3.46354  2.40513  3.72494  3.29354  2.67741  2.69355  4.24690  2.90347  2.73739  3.18146  2.89801  2.37887  2.77519  2.98518  4.58477  3.61503
          0.03044  3.90303  4.62537  0.61958  0.77255  0.60671  0.78777
     55   2.40209  4.44673  2.92289  2.60719  4.15975  3.10218  3.84058  3.57528  2.70432  3.22492  4.05834  2.21593  3.72007  3.04258  3.10365  2.01151  2.17202  3.15335  5.45638  4.15816     97 s - - -
          2.68618  4.42225  2.77519  2.73123  3.46354  2.40513  3.72494  3.29354  2.67741  2.69355  4.24690  2.90347  2.73739  3.18146  2.89801  2.37887  2.77519  2.98518  4.58477  3.61503
          0.03044  3.90303  4.62537  0.61958  0.77255  0.60671  0.78777
     56   3.07619  4.41840  4.64304  4.10444  3.30845  4.37075  4.78424  1.56200  3.98445  1.47769  3.12086  4.36824  4.63769  4.20879  4.18008  3.72092  3.32083  1.49884  5.28145  4.12367     98 l - - -
          2.68618  4.42225  2.77519  2.73123  3.46354  2.40513  3.72494  3.29354  2.67741  2.69355  4.24690  2.90347  2.73739  3.18146  2.89801  2.37887  2.77519  2.98518  4.58477  3.61503
          0.03044  3.90303  4.62537  0.61958  0.77255  0.60671  0.78777
     57   2.83212  4.36606  4.16772  3.83160  3.57222  3.75563  4.62798  2.04831  3.69985  2.25382  3.53254  4.01658  4.31429  4.05737  3.90944  3.26093  3.19283  0.98724  5.36188  4.09548     99 v - - -
          2.68618  4.42225  2.77519  2.73123  3.46354  2.40513  3.72494  3.29354  2.67741  2.69355  4.24690  2.90347  2.73739  3.18146  2.89801  2.37887  2.77519  2.98518  4.58477  3.61503
          0.03044  3.90303  4.62537  0.61958  0.77255  0.60671  0.78777
     58   2.81810  5.17414  2.31688  1.74838  4.49348  3.23217  3.70991  3.98355  2.58035  3.53945  4.39618  1.75489  3.81381  2.88113  3.04802  2.76380  3.10220  3.60119  5.68991  4.27277    100 e - - -
          2.68618  4.42225  2.77519  2.73123  3.46354  2.40513  3.72494  3.29354  2.67741  2.69355  4.24690  2.90347  2.73739  3.18146  2.89801  2.37887  2.77519  2.98518  4.58477  3.61503
          0.03044  3.90303  4.62537  0.61958  0.77255  0.60671  0.78777
     59   2.42886  4.27406  3.45490  3.20809  3.99554  3.11239  4.22312  3.12638  3.15167  2.98880  4.03721  3.41272  3.81847  3.54492  3.40901  2.63045  1.12117  2.81810  5.43066  4.21212    101 t - - -
          2.68618  4.42225  2.77519  2.73123  3.46354  2.40513  3.72494  3.29354  2.67741  2.69355  4.24690  2.90347  2.73739  3.18146  2.89801  2.37887  2.77519  2.98518  4.58477  3.61503
          0.03044  3.90303  4.62537  0.61958  0.77255  0.60671  0.78777
     60   1.64847  4.13006  3.33424  3.06540  4.19136  2.91046  4.14838  3.53587  3.11870  3.28820  4.14751  3.24002  3.65329  3.42490  3.42627  1.45424  2.67507  3.04145  5.55667  4.32590    102 s - - -
          2.68618  4.42225  2.77519  2.73123  3.46354  2.40513  3.72494  3.29354  2.67741  2.69355  4.24690  2.90347  2.73739  3.18146  2.89801  2.37887  2.77519  2.98518  4.58477  3.61503
          0.03044  3.90303  4.62537  0.61958  0.77255  0.60671  0.78777
     61   2.83552  5.15502  2.54002  1.57353  4.48477  3.33608  3.65076  3.90479  1.90935  3.43858  4.28927  2.83978  3.84665  2.80273  2.69192  2.79234  3.07953  3.54777  5.58379  4.24048    103 e - - -
          2.68618  4.42225  2.77519  2.73123  3.46354  2.40513  3.72494  3.29354  2.67741  2.69355  4.24690  2.90347  2.73739  3.18146  2.89801  2.37887  2.77519  2.98518  4.58477  3.61503
          0.03044  3.90303  4.62537  0.61958  0.77255  0.41694  1.07605
     62   2.11222  4.39956  3.94438  3.50981  3.41590  3.70802  4.32945  2.40272  3.36756  1.26410  3.33792  3.77683  4.20790  3.70877  3.61416  3.10332  3.09864  2.30619  5.16349  3.94288    104 l - - -
          2.68618  4.42225  2.77519  2.73123  3.46354  2.40513  3.72494  3.29354  2.67741  2.69355  4.24690  2.90347  2.73739  3.18146  2.89801  2.37887  2.77519  2.98518  4.58477  3.61503
          0.02673  4.03103  4.75338  0.61958  0.77255  0.48576  0.95510
     63   2.73017  5.20879  2.16366  1.92253  4.51602  3.32588  2.69504  3.99581  2.08830  3.49287  4.27579  2.79230  3.80496  2.75703  2.91539  2.67469  2.97388  3.58448  5.64194  4.22451    105 e - - -
          2.68618  4.42225  2.77519  2.73123  3.46354  2.40513  3.72494  3.29354  2.67741  2.69355  4.24690  2.90347  2.73739  3.18146  2.89801  2.37887  2.77519  2.98518  4.58477  3.61503
          0.02673  4.03103  4.75338  0.61958  0.77255  0.48576  0.95510
     64   2.62419  4.86449  2.38104  2.37344  4.15995  2.67354  3.64775  3.57020  2.14321  3.17238  3.98739  2.90035  3.80440  2.79756  2.91919  2.64062  2.87321  2.58151  5.40190  4.05064    106 k - - -
          2.68618  4.42225  2.77519  2.73123  3.46354  2.40513  3.72494  3.29354  2.67741  2.69355  4.24690  2.90347  2.73739  3.18146  2.89801  2.37887  2.77519  2.98518  4.58477  3.61503
          0.02673  4.03103  4.75338  0.61958  0.77255  0.48576  0.95510
     65   2.74801  5.21154  2.08889  2.21736  4.53620  2.58356  3.66345  4.01616  2.08659  3.52431  4.31729  2.23801  3.80951  2.79789  3.01327  2.69183  3.00428  3.60416  5.68551  4.25935    107 k - - -
          2.68618  4.42225  2.77519  2.73123  3.46354  2.40513  3.72494  3.29354  2.67741  2.69355  4.24690  2.90347  2.73739  3.18146  2.89801  2.37887  2.77519  2.98518  4.58477  3.61503
          0.02673  4.03103  4.75338  0.61958  0.77255  0.48576  0.95510
     66   2.26640  2.58680  3.56718  3.11792  4.01066  2.28052  4.09766  3.40781  3.08562  3.09893  3.94247  3.31698  2.44223  3.38064  3.41619  1.96283  2.70235  2.98112  5.39025  4.17361    108 s - - -
          2.68618  4.42225  2.77519  2.73123  3.46354  2.40513  3.72494  3.29354  2.67741  2.69355  4.24690  2.90347  2.73739  3.18146  2.89801  2.37887  2.77519  2.98518  4.58477  3.61503
          0.02673  4.03103  4.75338  0.61958  0.77255  0.48576  0.95510
     67   3.33544  4.68180  4.74017  4.24030  2.11015  4.45737  4.46417  2.32977  4.09499  0.94223  2.96613  4.42191  4.69040  4.20150  4.21063  3.82623  3.56451  2.45601  4.71945  3.30680    109 l - - -
          2.68618  4.42225  2.77519  2.73123  3.46354  2.40513  3.72494  3.29354  2.67741  2.69355  4.24690  2.90347  2.73739  3.18146  2.89801  2.37887  2.77519  2.98518  4.58477  3.61503
          0.16594  4.03103  2.00140  0.61958  0.77255  0.48576  0.95510
     68   3.01991  4.83355  3.14802  2.91013  3.30069  3.46688  1.09432  3.72645  2.75253  3.21757  4.26218  3.31859  4.02059  3.27661  3.01694  3.09033  3.32399  3.46111  4.76547  3.25086    110 h - - -
          2.68618  4.42225  2.77519  2.73123  3.46354  2.40513  3.72494  3.29354  2.67741  2.69355  4.24690  2.90347  2.73739  3.18146  2.89801  2.37887  2.77519  2.98518  4.58477  3.61503
          0.03066  3.89576  4.61810  0.61958  0.77255  0.61273  0.78060
     69   3.10486  4.76013  3.58720  3.19175  2.27364  3.83223  2.30031  3.36882  3.02869  2.83028  3.91182  3.46458  4.22743  3.38529  3.29654  3.18297  3.33880  3.17787  3.90684  1.44511    111 y - - -
          2.68618  4.42225  2.77519  2.73123  3.46354  2.40513  3.72494  3.29354  2.67741  2.69355  4.24690  2.90347  2.73739  3.18146  2.89801  2.37887  2.77519  2.98518  4.58477  3.61503
          0.03066  3.89576  4.61810  0.61958  0.77255  0.61273  0.78060
     70   2.84345  4.96857  2.96882  2.55210  4.06563  3.46734  2.07484  3.70756  1.76934  3.23522  4.11076  3.02178  3.90815  2.79834  2.42869  2.85428  3.06404  3.39448  5.25818  3.91353    112 k - - -
          2.68618  4.42225  2.77519  2.73123  3.46354  2.40513  3.72494  3.29354  2.67741  2.69355  4.24690  2.90347  2.73739  3.18146  2.89801  2.37887  2.77519  2.98518  4.58477  3.61503
          0.03066  3.89576  4.61810  0.61958  0.77255  0.61273  0.78060
     71   2.43852  4.26259  3.39250  2.89708  3.63047  3.29989  3.87428  2.89160  2.81760  2.64956  2.65080  3.24552  3.82601  3.16574  3.15672  2.13590  2.24887  2.63117  5.07163  3.82921    113 s - - -
          2.68618  4.42225  2.77519  2.73123  3.46354  2.40513  3.72494  3.29354  2.67741  2.69355  4.24690  2.90347  2.73739  3.18146  2.89801  2.37887  2.77519  2.98518  4.58477  3.61503
          0.03066  3.89576  4.61810  0.61958  0.77255  0.41384  1.08207
     72   2.55238  4.44221  3.24482  2.74994  3.72128  3.40538  3.80583  3.02682  2.68920  2.75494  2.74347  2.56474  3.87304  3.05459  3.06192  2.70483  2.00375  2.76610  5.12293  3.85494    114 t - - -
          2.68618  4.42225  2.77519  2.73123  3.46354  2.40513  3.72494  3.29354  2.67741  2.69355  4.24690  2.90347  2.73739  3.18146  2.89801  2.37887  2.77519  2.98518  4.58477  3.61503
          0.02673  4.03103  4.75338  0.61958  0.77255  0.48576  0.95510
     73   2.84547  4.54596  3.54860  3.09121  1.61347  3.68670  3.80620  2.94333  2.18342  2.53396  3.60199  3.44607  4.10844  3.30581  3.14697  3.03667  3.09521  2.77722  4.60086  3.09757    115 f - - -
          2.68618  4.42225  2.77519  2.73123  3.46354  2.40513  3.72494  3.29354  2.67741  2.69355  4.24690  2.90347  2.73739  3.18146  2.89801  2.37887  2.77519  2.98518  4.58477  3.61503
          0.02673  4.03103  4.75338  0.61958  0.77255  0.48576  0.95510
     74   2.85757  5.03934  2.89189  2.52278  3.99747  3.47534  2.12510  3.78589  2.29889  3.29756  4.17328  3.01556  3.93225  1.87031  2.62021  2.85552  3.08982  3.46229  5.26844  3.85323    116 q - - -
          2.68618  4.42225  2.77519  2.73123  3.46354  2.40513  3.72494  3.29354  2.67741  2.69355  4.24690  2.90347  2.73739  3.18146  2.89801  2.37887  2.77519  2.98518  4.58477  3.61503
          0.02673  4.03103  4.75338  0.61958  0.77255  0.48576  0.95510
     75   2.46878  4.41366  3.20728  3.01135  4.44149  1.20881  4.21946  3.92635  3.18278  3.57130  4.42822  3.30497  2.15160  3.48548  3.51833  2.61787  2.93320  3.40281  5.68043  4.50364    117 g - - -
          2.68618  4.42225  2.77519  2.73123  3.46354  2.40513  3.72494  3.29354  2.67741  2.69355  4.24690  2.90347  2.73739  3.18146  2.89801  2.37887  2.77519  2.98518  4.58477  3.61503
          0.02673  4.03103  4.75338  0.61958  0.77255  0.48576  0.95510
     76   3.10989  4.42218  4.82609  4.33308  3.58528  4.46131  5.04774  1.28769  4.22124  2.08567  3.38937  4.54867  4.77472  4.48611  4.41842  3.85234  3.37730  1.15984  5.55704  4.35099    118 v - - -
          2.68618  4.42225  2.77519  2.73123  3.46354  2.40513  3.72494  3.29354  2.67741  2.69355  4.24690  2.90347  2.73739  3.18146  2.89801  2.37887  2.77519  2.98518  4.58477  3.61503
          0.02673  4.03103  4.75338  0.61958  0.77255  0.48576  0.95510
     77   2.55022  4.61245  2.85476  2.61514  4.25872  3.19047  3.90383  3.66288  2.75102  3.34678  4.21206  1.54692  3.81554  3.10933  3.13994  2.63890  2.16089  3.26104  5.55733  4.22849    119 n - - -
          2.68618  4.42225  2.77519  2.73123  3.46354  2.40513  3.72494  3.29354  2.67741  2.69355  4.24690  2.90347  2.73739  3.18146  2.89801  2.37887  2.77519  2.98518  4.58477  3.61503
          0.02673  4.03103  4.75338  0.61958  0.77255  0.48576  0.95510
     78   3.33544  4.68180  4.74017  4.24030  2.11015  4.45737  4.46417  2.32977  4.09499  0.94223  2.96613  4.42191  4.69040  4.20150  4.21063  3.82623  3.56451  2.45601  4.71945  3.30680    120 l - - -
          2.68618  4.42225  2.77519  2.73123  3.46354  2.40513  3.72494  3.29354  2.67741  2.69355  4.24690  2.90347  2.73739  3.18146  2.89801  2.37887  2.77519  2.98518  4.58477  3.61503
          0.02673  4.03103  4.75338  0.61958  0.77255  0.48576  0.95510
     79   2.73201  5.10040  2.14149  2.27945  4.43505  3.31768  3.67687  3.89284  2.10318  3.43361  4.24229  2.82836  2.20283  2.81984  2.96771  2.69983  2.99113  3.50600  5.60963  4.21699    121 k - - -
          2.68618  4.42225  2.77519  2.73123  3.46354  2.40513  3.72494  3.29354  2.67741  2.69355  4.24690  2.90347  2.73739  3.18146  2.89801  2.37887  2.77519  2.98518  4.58477  3.61503
          0.02673  4.03103  4.75338  0.61958  0.77255  0.48576  0.95510
     80   1.78527  4.29503  3.32806  3.06548  4.23959  3.06030  4.18296  3.55678  3.12002  3.29540  4.19699  3.30576  1.44961  3.45095  3.43678  2.53150  2.82278  3.11804  5.59627  4.37050    122 p - - -
          2.68618  4.42225  2.77519  2.73123  3.46354  2.40513  3.72494  3.29354  2.67741  2.69355  4.24690  2.90347  2.73739  3.18146  2.89801  2.37887  2.77519  2.98518  4.58477  3.61503
          0.02673  4.03103  4.75338  0.61958  0.77255  0.48576  0.95510
     81   2.92004  5.40363  1.49379  2.15537  4.72395  3.23419  3.79748  4.28153  2.80867  3.80028  4.65365  1.69528  3.85850  2.97042  3.38653  2.82803  3.22232  3.85137  5.92887  4.43708    123 d - - -
          2.68618  4.42225  2.77519  2.73123  3.46354  2.40513  3.72494  3.29354  2.67741  2.69355  4.24690  2.90347  2.73739  3.18146  2.89801  2.37887  2.77519  2.98518  4.58477  3.61503
          0.02673  4.03103  4.75338  0.61958  0.77255  0.48576  0.95510
     82   2.70392  4.73238  2.89611  2.65136  4.02023  1.47555  2.38584  3.75625  2.73343  3.34761  4.22608  3.10341  3.88926  3.12727  3.09927  2.77705  3.04428  3.38131  5.34873  3.97310    124 g - - -
          2.68618  4.42225  2.77519  2.73123  3.46354  2.40513  3.72494  3.29354  2.67741  2.69355  4.24690  2.90347  2.73739  3.18146  2.89801  2.37887  2.77519  2.98518  4.58477  3.61503
          0.02673  4.03103  4.75338  0.61958  0.77255  0.48576  0.95510
     83   2.50897  4.33486  3.53445  3.15948  3.82607  3.29317  4.15173  2.90825  3.09943  2.76706  3.80891  3.43263  1.61697  3.45750  3.40356  2.72059  2.90301  1.99130  5.33009  4.07638    125 p - - -
          2.68618  4.42225  2.77519  2.73123  3.46354  2.40513  3.72494  3.29354  2.67741  2.69355  4.24690  2.90347  2.73739  3.18146  2.89801  2.37887  2.77519  2.98518  4.58477  3.61503
          0.02673  4.03103  4.75338  0.61958  0.77255  0.48576  0.95510
     84   3.09040  4.41941  4.77108  4.28182  3.58878  4.41254  5.00819  1.47539  4.16559  2.10348  3.40177  4.50073  4.74416  4.44162  4.37025  3.80431  3.36238  1.03289  5.54579  4.33095    126 v - - -
          2.68618  4.42225  2.77519  2.73123  3.46354  2.40513  3.72494  3.29354  2.67741  2.69355  4.24690  2.90347  2.73739  3.18146  2.89801  2.37887  2.77519  2.98518  4.58477  3.61503
          0.02673  4.03103  4.75338  0.61958  0.77255  0.48576  0.95510
     85   2.74661  4.58700  3.19368  2.21866  3.65392  3.55918  3.87622  2.89461  2.72289  2.52074  1.86201  3.24526  3.99944  3.13156  3.06541  2.90347  2.99815  2.72592  5.15175  3.88752    127 m - - -
          2.68618  4.42225  2.77519  2.73123  3.46354  2.40513  3.72494  3.29354  2.67741  2.69355  4.24690  2.90347  2.73739  3.18146  2.89801  2.37887  2.77519  2.98518  4.58477  3.61503
          0.02673  4.03103  4.75338  0.61958  0.77255  0.48576  0.95510
     86   2.86314  5.12601  3.04947  2.53726  4.45044  3.52583  2.62123  3.89286  1.57097  3.37375  4.20134  3.02131  3.92538  2.26330  2.37138  2.84441  3.06413  3.54319  5.46044  4.17622    128 k - - -
          2.68618  4.42225  2.77519  2.73123  3.46354  2.40513  3.72494  3.29354  2.67741  2.69355  4.24690  2.90347  2.73739  3.18146  2.89801  2.37887  2.77519  2.98518  4.58477  3.61503
          0.02673  4.03103  4.75338  0.61958  0.77255  0.48576  0.95510
     87   3.07723  5.18788  3.48033  2.81799  4.64831  3.68341  3.62963  3.99633  1.19006  3.43385  4.30697  3.21788  4.05416  2.76471  1.71776  3.07128  3.24322  3.67769  5.46957  4.30530    129 k - - -
          2.68618  4.42225  2.77519  2.73123  3.46354  2.40513  3.72494  3.29354  2.67741  2.69355  4.24690  2.90347  2.73739  3.18146  2.89801  2.37887  2.77519  2.98518  4.58477  3.61503
          0.16594  4.03103  2.00140  0.61958  0.77255  0.48576  0.95510
     88   2.64797  4.71571  3.05998  2.14815  3.93522  3.44558  3.62609  3.30322  2.30751  2.91652  2.87260  3.01350  3.84466  2.80170  2.26584  2.71088  2.87380  3.02643  5.20831  3.92280    130 e - - -
          2.68618  4.42225  2.77519  2.73123  3.46354  2.40513  3.72494  3.29354  2.67741  2.69355  4.24690  2.90347  2.73739  3.18146  2.89801  2.37887  2.77519  2.98518  4.58477  3.61503
          0.03066  3.89576  4.61810  0.61958  0.77255  0.61273  0.78060
     89   2.42493  4.27011  3.44842  3.20128  3.98910  3.10868  4.21687  3.11906  3.14471  2.98173  4.03060  3.40707  3.81419  3.53832  3.40240  2.62643  1.13305  2.81156  5.42486  4.20568    131 t - - -
          2.68618  4.42225  2.77519  2.73123  3.46354  2.40513  3.72494  3.29354  2.67741  2.69355  4.24690  2.90347  2.73739  3.18146  2.89801  2.37887  2.77519  2.98518  4.58477  3.61503
          0.03066  3.89576  4.61810  0.61958  0.77255  0.61273  0.78060
     90   2.62922  4.30825  3.72036  3.23600  3.42136  3.55123  4.10120  2.47641  3.07974  2.17276  2.02532  3.54231  4.04065  3.44493  3.35667  2.91037  2.24695  2.34281  5.06633  3.84946    132 m - - -
          2.68618  4.42225  2.77519  2.73123  3.46354  2.40513  3.72494  3.29354  2.67741  2.69355  4.24690  2.90347  2.73739  3.18146  2.89801  2.37887  2.77519  2.98518  4.58477  3.61503
          0.03066  3.89576  4.61810  0.61958  0.77255  0.61273  0.78060
     91   2.69354  4.46691  3.37211  3.27435  4.41667  0.69406  4.39340  4.02176  3.45881  3.67302  4.64879  3.53635  3.85880  3.78109  3.69250  2.86609  3.17658  3.54557  5.50588  4.51928    133 g - - -
          2.68618  4.42225  2.77519  2.73123  3.46354  2.40513  3.72494  3.29354  2.67741  2.69355  4.24690  2.90347  2.73739  3.18146  2.89801  2.37887  2.77519  2.98518  4.58477  3.61503
          0.03066  3.89576  4.61810  0.61958  0.77255  0.61273  0.78060
     92   3.37391  4.74040  4.12654  3.83823  2.68962  3.75604  3.92807  3.39830  3.55985  2.78926  4.03105  3.98254  4.27566  3.94625  3.68418  3.57741  3.67544  3.28928  0.83962  2.69046    134 w - - -
          2.68618  4.42225  2.77519  2.73123  3.46354  2.40513  3.72494  3.29354  2.67741  2.69355  4.24690  2.90347  2.73739  3.18146  2.89801  2.37887  2.77519  2.98518  4.58477  3.61503
          0.03066  3.89576  4.61810  0.61958  0.77255  0.61273  0.78060
     93   2.72969  4.65983  2.19979  2.60944  3.67288  3.43699  3.83341  2.95783  2.77232  1.75605  3.71566  3.09908  3.92841  3.08659  3.18312  2.84029  3.00087  2.76991  5.17376  3.82522    135 l - - -
          2.68618  4.42225  2.77519  2.73123  3.46354  2.40513  3.72494  3.29354  2.67741  2.69355  4.24690  2.90347  2.73739  3.18146  2.89801  2.37887  2.77519  2.98518  4.58477  3.61503
          0.03066  3.89576  4.61810  0.61958  0.77255  0.61273  0.78060
     94   2.78189  4.53561  3.39154  3.23376  4.22732  3.22179  4.30948  3.77850  3.29301  3.40290  4.45360  3.53822  0.78546  3.68108  3.53609  2.95006  3.22524  3.42125  5.40770  4.34823    136 p - - -
          2.68618  4.42225  2.77519  2.73123  3.46354  2.40513  3.72494  3.29354  2.67741  2.69355  4.24690  2.90347  2.73739  3.18146  2.89801  2.37887  2.77519  2.98518  4.58477  3.61503
          0.03066  3.89576  4.61810  0.61958  0.77255  0.61273  0.78060
     95   2.32618  4.24699  3.22636  3.04299  4.09935  2.97643  4.15231  3.62501  3.11833  3.34336  4.26736  3.26419  3.71710  3.46578  3.40379  1.05649  2.80801  3.15502  5.46993  4.18294    137 s - - -
          2.68618  4.42225  2.77519  2.73123  3.46354  2.40513  3.72494  3.29354  2.67741  2.69355  4.24690  2.90347  2.73739  3.18146  2.89801  2.37887  2.77519  2.98518  4.58477  3.61503
          0.03066  3.89576  4.61810  0.61958  0.77255  0.61273  0.78060
     96   2.92237  4.36623  4.32457  3.83167  2.23771  4.01720  4.31611  2.10568  3.72226  1.90058  3.18722  4.03646  4.39434  3.94274  3.91897  3.37812  3.19235  1.43603  4.80062  3.40318    138 v - - -
          2.68618  4.42225  2.77519  2.73123  3.46354  2.40513  3.72494  3.29354  2.67741  2.69355  4.24690  2.90347  2.73739  3.18146  2.89801  2.37887  2.77519  2.98518  4.58477  3.61503
          0.03066  3.89576  4.61810  0.61958  0.77255  0.61273  0.78060
     97   2.97195  5.08827  2.49689  0.99272  4.43735  3.28881  3.87736  3.89586  2.76079  3.50914  4.48193  2.94560  3.89443  3.09239  3.17221  2.95185  3.27629  3.57722  5.60453  4.32653    139 e - - -
          2.68618  4.42225  2.77519  2.73123  3.46354  2.40513  3.72494  3.29354  2.67741  2.69355  4.24690  2.90347  2.73739  3.18146  2.89801  2.37887  2.77519  2.98518  4.58477  3.61503
          0.03066  3.89576  4.61810  0.61958  0.77255  0.61273  0.78060
     98   2.61455  4.63000  3.04709  2.63852  4.08365  3.32349  3.73972  3.37577  1.92875  3.06746  3.96011  3.07078  3.83916  2.93017  2.69585  2.70489  1.88299  3.06463  5.33741  4.07079    140 t - - -
          2.68618  4.42225  2.77519  2.73123  3.46354  2.40513  3.72494  3.29354  2.67741  2.69355  4.24690  2.90347  2.73739  3.18146  2.89801  2.37887  2.77519  2.98518  4.58477  3.61503
          0.03066  3.89576  4.61810  0.61958  0.77255  0.61273  0.78060
     99   2.60409  4.52780  3.09488  2.68581  3.67122  3.38439  3.77588  3.05409  2.61851  2.74130  2.62219  2.02259  3.87211  3.02720  2.97433  2.73190  2.88924  2.81459  5.10772  3.77410    141 n - - -
          2.68618  4.42225  2.77519  2.73123  3.46354  2.40513  3.72494  3.29354  2.67741  2.69355  4.24690  2.90347  2.73739  3.18146  2.89801  2.37887  2.77519  2.98518  4.58477  3.61503
          0.03066  3.89576  4.61810  0.61958  0.77255  0.61273  0.78060
    100   2.72592  4.29396  3.97471  3.50990  3.50388  3.73838  4.34707  1.49357  3.37659  2.21489  3.39871  3.78265  4.21513  3.72130  3.63737  3.11490  2.27229  1.93366  5.21685  3.99066    142 i - - -
          2.68618  4.42225  2.77519  2.73123  3.46354  2.40513  3.72494  3.29354  2.67741  2.69355  4.24690  2.90347  2.73739  3.18146  2.89801  2.37887  2.77519  2.98518  4.58477  3.61503
          0.03066  3.89576  4.61810  0.61958  0.77255  0.61273  0.78060
    101   2.45593  4.27949  3.45140  3.06549  3.73726  3.24868  4.06160  2.81596  3.00317  2.67452  3.71612  3.35470  1.96433  3.36351  3.31270  2.66669  2.83932  1.95597  5.24324  3.98635    143 v - - -
          2.68618  4.42225  2.77519  2.73123  3.46354  2.40513  3.72494  3.29354  2.67741  2.69355  4.24690  2.90347  2.73739  3.18146  2.89801  2.37887  2.77519  2.98518  4.58477  3.61503
          0.03066  3.89576  4.61810  0.61958  0.77255  0.61273  0.78060
    102   2.61903  4.65417  3.15625  2.69090  4.15588  3.31564  3.71486  3.59831  2.27323  3.18888  4.05536  3.09514  3.83603  2.89771  1.70557  2.08977  2.92413  3.24128  5.34359  4.07594    144 r - - -
          2.68618  4.42225  2.77519  2.73123  3.46354  2.40513  3.72494  3.29354  2.67741  2.69355  4.24690  2.90347  2.73739  3.18146  2.89801  2.37887  2.77519  2.98518  4.58477  3.61503
          0.03066  3.89576  4.61810  0.61958  0.77255  0.61273  0.78060
    103   2.69226  4.94146  2.72570  1.97096  4.29539  2.55938  3.62540  3.72085  2.31355  3.27498  4.10012  2.88301  3.80894  2.77438  2.21679  2.69143  2.94126  3.36397  5.45050  4.12205    145 e - - -
          2.68618  4.42225  2.77519  2.73123  3.46354  2.40513  3.72494  3.29354  2.67741  2.69355  4.24690  2.90347  2.73739  3.18146  2.89801  2.37887  2.77519  2.98518  4.58477  3.61503
          0.03066  3.89576  4.61810  0.61958  0.77255  0.61273  0.78060
    104   2.73743  5.11936  1.86538  2.15720  4.53845  2.31246  3.71384  4.03455  2.66994  3.57432  4.40363  2.13153  3.77162  2.87878  3.21289  2.68947  3.04079  3.61171  5.74790  4.30761    146 d - - -
          2.68618  4.42225  2.77519  2.73123  3.46354  2.40513  3.72494  3.29354  2.67741  2.69355  4.24690  2.90347  2.73739  3.18146  2.89801  2.37887  2.77519  2.98518  4.58477  3.61503
          0.03066  3.89576  4.61810  0.61958  0.77255  0.61273  0.78060
    105   2.61442  4.33701  3.63154  3.18497  3.51118  3.49118  4.09641  2.50973  3.03030  1.86126  3.47137  3.49638  4.01654  3.42252  3.31606  2.87354  1.85152  2.35043  5.13197  3.87373    147 t - - -
          2.68618  4.42225  2.77519  2.73123  3.46354  2.40513  3.72494  3.29354  2.67741  2.69355  4.24690  2.90347  2.73739  3.18146  2.89801  2.37887  2.77519  2.98518  4.58477  3.61503
          0.03066  3.89576  4.61810  0.61958  0.77255  0.61273  0.78060
    106   3.18119  4.63644  4.22693  3.86669  3.14428  4.01184  4.51511  2.34938  3.63422  0.84705  3.15960  4.13993  4.44306  3.99698  3.80656  3.58512  3.47431  2.39280  5.03222  3.76098    148 l - - -
          2.68618  4.42225  2.77519  2.73123  3.46354  2.40513  3.72494  3.29354  2.67741  2.69355  4.24690  2.90347  2.73739  3.18146  2.89801  2.37887  2.77519  2.98518  4.58477  3.61503
          0.03066  3.89576  4.61810  0.61958  0.77255  0.61273  0.78060
    107   2.68512  4.43928  3.46765  2.91813  3.54878  3.60781  3.85797  2.60730  2.18632  2.06433  3.47346  3.32788  4.00226  3.12851  2.96301  2.89820  2.92567  2.06573  5.05059  3.80193    149 l - - -
          2.68618  4.42225  2.77519  2.73123  3.46354  2.40513  3.72494  3.29354  2.67741  2.69355  4.24690  2.90347  2.73739  3.18146  2.89801  2.37887  2.77519  2.98518  4.58477  3.61503
          0.03066  3.89576  4.61810  0.61958  0.77255  0.61273  0.78060
    108   2.69354  4.46691  3.37211  3.27435  4.41667  0.69406  4.39340  4.02176  3.45881  3.67302  4.64879  3.53635  3.85880  3.78109  3.69250  2.86609  3.17658  3.54557  5.50588  4.51928    150 g - - -
          2.68618  4.42225  2.77519  2.73123  3.46354  2.40513  3.72494  3.29354  2.67741  2.69355  4.24690  2.90347  2.73739  3.18146  2.89801  2.37887  2.77519  2.98518  4.58477  3.61503
          0.03066  3.89576  4.61810  0.61958  0.77255  0.61273  0.78060
    109   3.01431  5.14665  0.88523  2.34897  4.52671  3.22804  3.95113  4.12012  3.03958  3.72422  4.70264  2.90659  3.88245  3.19017  3.55911  2.97391  3.35331  3.75676  5.69082  4.39552    151 d - - -
          2.68618  4.42225  2.77519  2.73123  3.46354  2.40513  3.72494  3.29354  2.67741  2.69355  4.24690  2.90347  2.73739  3.18146  2.89801  2.37887  2.77519  2.98518  4.58477  3.61503
          0.03066  3.89576  4.61810  0.61958  0.77255  0.61273  0.78060
    110   3.02284  4.38008  4.61068  4.11740  3.46362  4.29513  4.85189  1.27876  3.99239  1.97371  3.28750  4.35713  4.63309  4.27108  4.20463  3.67937  3.29426  1.37219  5.41373  4.20525    152 i - - -
          2.68618  4.42225  2.77519  2.73123  3.46354  2.40513  3.72494  3.29354  2.67741  2.69355  4.24690  2.90347  2.73739  3.18146  2.89801  2.37887  2.77519  2.98518  4.58477  3.61503
          0.03066  3.89576  4.61810  0.61958  0.77255  0.61273  0.78060
    111   2.48403  4.52701  2.82677  2.57766  4.15123  3.13589  3.84501  3.53992  2.69004  3.23880  4.11098  1.81532  3.75766  3.05634  3.07048  2.58028  2.12630  3.15227  5.46253  4.13987    153 n - - -
          2.68618  4.42225  2.77519  2.73123  3.46354  2.40513  3.72494  3.29354  2.67741  2.69355  4.24690  2.90347  2.73739  3.18146  2.89801  2.37887  2.77519  2.98518  4.58477  3.61503
          0.03066  3.89576  4.61810  0.61958  0.77255  0.61273  0.78060
    112   2.98732  4.53236  4.07429  3.66938  3.21763  3.85140  4.39912  2.39554  3.43623  1.80869  1.33402  3.94403  4.31202  3.81650  3.63884  3.33892  3.29302  2.40439  5.06163  3.82553    154 m - - -
          2.68618  4.42225  2.77519  2.73123  3.46354  2.40513  3.72494  3.29354  2.67741  2.69355  4.24690  2.90347  2.73739  3.18146  2.89801  2.37887  2.77519  2.98518  4.58477  3.61503
          0.03066  3.89576  4.61810  0.61958  0.77255  0.61273  0.78060
    113   3.20490  4.58724  4.51879  4.02548  2.04129  4.28857  4.28442  2.29482  3.88422  1.12079  2.97395  4.22169  4.55798  4.03588  4.03413  3.65070  3.44002  2.38093  4.58927  3.13555    155 l - - -
          2.68618  4.42225  2.77519  2.73123  3.46354  2.40513  3.72494  3.29354  2.67741  2.69355  4.24690  2.90347  2.73739  3.18146  2.89801  2.37887  2.77519  2.98518  4.58477  3.61503
          0.03066  3.89576  4.61810  0.61958  0.77255  0.61273  0.78060
    114   3.18119  4.63644  4.22693  3.86669  3.14428  4.01184  4.51511  2.34938  3.63422  0.84705  3.15960  4.13993  4.44306  3.99698  3.80656  3.58512  3.47431  2.39280  5.03222  3.76098    156 l - - -
          2.68618  4.42225  2.77519  2.73123  3.46354  2.40513  3.72494  3.29354  2.67741  2.69355  4.24690  2.90347  2.73739  3.18146  2.89801  2.37887  2.77519  2.98518  4.58477  3.61503
          0.03066  3.89576  4.61810  0.61958  0.77255  0.41384  1.08207
    115   2.71779  4.44961  3.53846  2.97860  3.61898  3.67371  3.93123  2.11216  2.00751  2.49953  3.52266  3.39224  4.05970  3.20253  3.08286  2.95133  2.95689  2.00034  5.11896  3.87655    157 v - - -
          2.68618  4.42225  2.77519  2.73123  3.46354  2.40513  3.72494  3.29354  2.67741  2.69355  4.24690  2.90347  2.73739  3.18146  2.89801  2.37887  2.77519  2.98518  4.58477  3.61503
          0.02673  4.03103  4.75338  0.61958  0.77255  0.48576  0.95510
    116   3.10578  4.49250  4.60872  4.10304  3.31234  4.30254  4.76311  1.98517  3.94348  1.28091  3.16293  4.34737  4.62643  4.19797  4.13094  3.67896  3.36887  1.39946  5.27172  4.08423    158 l - - -
          2.68618  4.42225  2.77519  2.73123  3.46354  2.40513  3.72494  3.29354  2.67741  2.69355  4.24690  2.90347  2.73739  3.18146  2.89801  2.37887  2.77519  2.98518  4.58477  3.61503
          0.02673  4.03103  4.75338  0.61958  0.77255  0.48576  0.95510
    117   2.84592  5.10846  3.03747  2.53274  4.48901  3.50850  3.61485  3.89594  1.79169  3.38235  4.20629  2.05131  3.91712  2.74534  1.98302  2.83032  3.05436  3.53960  5.48499  4.21000    159 k - - -
          2.68618  4.42225  2.77519  2.73123  3.46354  2.40513  3.72494  3.29354  2.67741  2.69355  4.24690  2.90347  2.73739  3.18146  2.89801  2.37887  2.77519  2.98518  4.58477  3.61503
          0.02673  4.03103  4.75338  0.61958  0.77255  0.48576  0.95510
    118   2.65419  4.91245  1.76759  2.33178  4.44086  2.40869  3.77610  3.88215  2.68497  3.46883  4.28855  2.85800  3.80181  2.93972  3.18920  2.66164  2.26361  3.46510  5.67214  4.28555    160 d - - -
          2.68618  4.42225  2.77519  2.73123  3.46354  2.40513  3.72494  3.29354  2.67741  2.69355  4.24690  2.90347  2.73739  3.18146  2.89801  2.37887  2.77519  2.98518  4.58477  3.61503
          0.02673  4.03103  4.75338  0.61958  0.77255  0.48576  0.95510
    119   2.87362  4.63068  3.57965  3.50053  4.63489  0.52158  4.60870  4.27543  3.70321  3.90892  4.88778  3.74432  4.02677  4.01503  3.91951  3.05049  3.36721  3.77315  5.68570  4.74301    161 G - - -
          2.68618  4.42225  2.77519  2.73123  3.46354  2.40513  3.72494  3.29354  2.67741  2.69355  4.24690  2.90347  2.73739  3.18146  2.89801  2.37887  2.77519  2.98518  4.58477  3.61503
          0.02673  4.03103  4.75338  0.61958  0.77255  0.48576  0.95510
    120   2.62778  4.87135  2.01007  2.34883  4.47864  2.37003  3.80231  3.94962  2.72365  3.51839  4.33233  2.86574  3.79206  2.96888  3.22847  1.78928  2.96563  3.50254  5.70807  4.32047    162 s - - -
          2.68618  4.42225  2.77519  2.73123  3.46354  2.40513  3.72494  3.29354  2.67741  2.69355  4.24690  2.90347  2.73739  3.18146  2.89801  2.37887  2.77519  2.98518  4.58477  3.61503
          0.02673  4.03103  4.75338  0.61958  0.77255  0.48576  0.95510
    121   2.85807  4.42066  3.84834  3.36602  1.75189  2.56200  3.68860  2.92119  3.29564  2.54206  3.55226  3.59638  4.18019  3.52677  3.54852  3.09496  3.10452  2.73342  4.15715  2.04628    163 f - - -
          2.68618  4.42225  2.77519  2.73123  3.46354  2.40513  3.72494  3.29354  2.67741  2.69355  4.24690  2.90347  2.73739  3.18146  2.89801  2.37887  2.77519  2.98518  4.58477  3.61503
          0.02673  4.03103  4.75338  0.61958  0.77255  0.48576  0.95510
    122   2.67485  4.76901  2.34466  2.47153  3.79596  3.42393  2.77585  3.36364  2.54569  2.13161  3.85759  2.98191  3.86300  2.88975  2.98083  2.72507  2.91610  3.08095  5.16952  3.78130    164 l - - -
          2.68618  4.42225  2.77519  2.73123  3.46354  2.40513  3.72494  3.29354  2.67741  2.69355  4.24690  2.90347  2.73739  3.18146  2.89801  2.37887  2.77519  2.98518  4.58477  3.61503
          0.02673  4.03103  4.75338  0.61958  0.77255  0.48576  0.95510
    123   3.09144  5.19820  3.52121  2.83430  4.66681  3.69793  3.62483  4.00747  1.33013  3.43824  4.31135  3.22825  4.06153  2.75863  1.49412  3.08445  3.25186  3.69004  5.46886  4.31209    165 k - - -
          2.68618  4.42225  2.77519  2.73123  3.46354  2.40513  3.72494  3.29354  2.67741  2.69355  4.24690  2.90347  2.73739  3.18146  2.89801  2.37887  2.77519  2.98518  4.58477  3.61503
          0.02673  4.03103  4.75338  0.61958  0.77255  0.48576  0.95510
    124   2.87983  2.77337  4.60932  4.07235  3.49039  4.11967  4.65403  1.57015  3.95231  2.20860  3.36806  4.23264  4.49262  4.18648  4.12270  3.47442  3.14774  1.29937  5.24141  4.04100    166 v - - -
          2.68618  4.42225  2.77519  2.73123  3.46354  2.40513  3.72494  3.29354  2.67741  2.69355  4.24690  2.90347  2.73739  3.18146  2.89801  2.37887  2.77519  2.98518  4.58477  3.61503
          0.02673  4.03103  4.75338  0.61958  0.77255  0.48576  0.95510
    125   2.81662  5.14722  2.78863  2.40851  4.49348  3.43162  3.63332  3.93114  1.91105  3.42644  4.24338  2.31022  3.88056  1.92625  2.57049  2.78502  3.04196  3.55988  5.54705  4.22060    167 k - - -
          2.68618  4.42225  2.77519  2.73123  3.46354  2.40513  3.72494  3.29354  2.67741  2.69355  4.24690  2.90347  2.73739  3.18146  2.89801  2.37887  2.77519  2.98518  4.58477  3.61503
          0.02673  4.03103  4.75338  0.61958  0.77255  0.48576  0.95510
    126   3.33061  4.68077  4.64634  4.19011  1.35966  4.36479  4.14437  2.47438  4.03764  1.41874  3.14223  4.28066  4.64515  4.14570  4.14832  3.73918  3.56711  2.55025  4.37521  2.81149    168 f - - -
          2.68618  4.42225  2.77519  2.73123  3.46354  2.40513  3.72494  3.29354  2.67741  2.69355  4.24690  2.90347  2.73739  3.18146  2.89801  2.37887  2.77519  2.98518  4.58477  3.61503
          0.02673  4.03103  4.75338  0.61958  0.77255  0.48576  0.95510
    127   2.65349  4.63994  3.01277  2.21352  3.79589  3.45403  2.80303  3.18463  2.54045  2.87002  3.75066  3.05768  3.88141  2.93034  2.93041  2.74695  2.89370  2.07688  5.15602  3.84507    169 v - - -
          2.68618  4.42225  2.77519  2.73123  3.46354  2.40513  3.72494  3.29354  2.67741  2.69355  4.24690  2.90347  2.73739  3.18146  2.89801  2.37887  2.77519  2.98518  4.58477  3.61503
          0.02673  4.03103  4.75338  0.61958  0.77255  0.48576  0.95510
    128   2.66929  4.75703  2.77767  2.00113  4.19251  3.31048  3.81421  3.49027  2.63743  3.19687  4.08331  3.00063  3.86070  3.00540  3.04135  2.73020  1.62806  3.16809  5.48622  4.16958    170 t - - -
          2.68618  4.42225  2.77519  2.73123  3.46354  2.40513  3.72494  3.29354  2.67741  2.69355  4.24690  2.90347  2.73739  3.18146  2.89801  2.37887  2.77519  2.98518  4.58477  3.61503
          0.02673  4.03103  4.75338  0.61958  0.77255  0.48576  0.95510
    129   2.57492  4.26376  3.89828  3.46371  3.72137  3.47956  4.33791  2.36534  3.36213  2.53926  3.63196  3.67319  4.06970  3.69281  3.63252  2.88338  1.78606  1.52547  5.33457  4.11095    171 v - - -
          2.68618  4.42225  2.77519  2.73123  3.46354  2.40513  3.72494  3.29354  2.67741  2.69355  4.24690  2.90347  2.73739  3.18146  2.89801  2.37887  2.77519  2.98518  4.58477  3.61503
          0.02673  4.03103  4.75338  0.61958  0.77255  0.48576  0.95510
    130   2.08112  4.44554  3.53857  3.14725  2.97466  3.54222  3.83740  2.98868  3.07388  2.67368  3.69448  3.44874  4.05123  3.41121  3.36151  2.92194  3.03264  2.77298  4.55929  1.57212    172 y - - -
          2.68618  4.42225  2.77519  2.73123  3.46354  2.40513  3.72494  3.29354  2.67741  2.69355  4.24690  2.90347  2.73739  3.18146  2.89801  2.37887  2.77519  2.98518  4.58477  3.61503
          0.02673  4.03103  4.75338  0.61958  0.77255  0.48576  0.95510
    131   2.89585  5.16677  3.09607  2.08708  4.56544  3.54743  3.60416  3.95127  1.74072  3.41418  4.24048  3.03896  3.94039  2.72986  1.70982  2.87145  3.08987  3.59663  5.49879  4.24439    173 r - - -
          2.68601  4.42237  2.77531  2.73135  3.46366  2.40524  3.72424  3.29366  2.67752  2.69337  4.24701  2.90322  2.73721  3.18158  2.89812  2.37898  2.77531  2.98491  4.58489  3.61515
          0.16594  1.93601  4.75338  1.43059  0.27334  0.48576  0.95510
    132   2.67804  4.32478  3.82290  3.36580  1.96370  3.58912  4.04025  2.64507  3.28543  2.32819  3.44419  3.61578  4.08939  3.56985  3.54766  2.95623  1.83985  2.48817  4.76024  3.34649    180 t - - -
          2.68618  4.42225  2.77519  2.73123  3.46354  2.40513  3.72494  3.29354  2.67741  2.69355  4.24690  2.90347  2.73739  3.18146  2.89801  2.37887  2.77519  2.98518  4.58477  3.61503
          0.02673  4.03103  4.75338  0.61958  0.77255  0.48576  0.95510
    133   2.78059  4.68585  3.35934  2.80658  3.82299  3.58797  3.76690  3.10949  1.69866  2.71575  2.25730  3.23604  3.99078  2.97703  2.65893  2.90062  3.01033  2.90808  5.19047  3.94058    181 k - - -
          2.68618  4.42225  2.77519  2.73123  3.46354  2.40513  3.72494  3.29354  2.67741  2.69355  4.24690  2.90347  2.73739  3.18146  2.89801  2.37887  2.77519  2.98518  4.58477  3.61503
          0.02673  4.03103  4.75338  0.61958  0.77255  0.48576  0.95510
    134   2.94181  5.16034  3.04653  2.58919  4.53475  3.54223  3.64229  3.94456  1.52608  3.41614  4.27263  3.05985  3.96578  1.80565  2.33365  2.92320  3.14520  3.60548  5.50382  4.25005    182 k - - -
          2.68618  4.42225  2.77519  2.73123  3.46354  2.40513  3.72494  3.29354  2.67741  2.69355  4.24690  2.90347  2.73739  3.18146  2.89801  2.37887  2.77519  2.98518  4.58477  3.61503
          0.02673  4.03103  4.75338  0.61958  0.77255  0.48576  0.95510
    135   2.97484  4.70300  3.59960  3.46342  4.44072  3.38167  4.52574  4.02956  3.53481  3.63813  4.69645  3.75294  0.57931  3.91873  3.76022  3.14786  3.42939  3.65640  5.58125  4.56436    183 P - - -
          2.68618  4.42225  2.77519  2.73123  3.46354  2.40513  3.72494  3.29354  2.67741  2.69355  4.24690  2.90347  2.73739  3.18146  2.89801  2.37887  2.77519  2.98518  4.58477  3.61503
          0.02673  4.03103  4.75338  0.61958  0.77255  0.48576  0.95510
    136   3.09040  4.41941  4.77108  4.28182  3.58878  4.41254  5.00819  1.47539  4.16559  2.10348  3.40177  4.50073  4.74416  4.44162  4.37025  3.80431  3.36238  1.03289  5.54579  4.33095    184 v - - -
          2.68581  4.42239  2.77533  2.73137  3.46258  2.40488  3.72508  3.29368  2.67754  2.69368  4.24703  2.90360  2.73700  3.18160  2.89814  2.37900  2.77533  2.98532  4.58491  3.61517
          0.28271  1.43701  4.75338  1.20440  0.35649  0.48576  0.95510
    137   2.69841  4.76326  3.10178  2.65565  4.21477  3.40362  3.74688  3.53101  1.68825  3.18138  4.05625  3.09982  3.89448  2.91905  2.65115  2.76640  1.89195  3.20817  5.41326  4.14588    189 k - - -
          2.68618  4.42225  2.77519  2.73123  3.46354  2.40513  3.72494  3.29354  2.67741  2.69355  4.24690  2.90347  2.73739  3.18146  2.89801  2.37887  2.77519  2.98518  4.58477  3.61503
          0.02673  4.03103  4.75338  0.61958  0.77255  0.48576  0.95510
    138   3.27375  4.65492  4.68231  4.13539  3.07081  4.44215  4.73176  2.22957  3.93937  1.05315  1.84037  4.41950  4.66685  4.13708  4.09421  3.79628  3.50258  2.35320  5.12317  4.01216    190 l - - -
          2.68618  4.42225  2.77519  2.73123  3.46354  2.40513  3.72494  3.29354  2.67741  2.69355  4.24690  2.90347  2.73739  3.18146  2.89801  2.37887  2.77519  2.98518  4.58477  3.61503
          0.02673  4.03103  4.75338  0.61958  0.77255  0.48576  0.95510
    139   2.97484  4.70300  3.59960  3.46342  4.44072  3.38167  4.52574  4.02956  3.53481  3.63813  4.69645  3.75294  0.57931  3.91873  3.76022  3.14786  3.42939  3.65640  5.58125  4.56436    191 P - - -
          2.68618  4.42225  2.77519  2.73123  3.46354  2.40513  3.72494  3.29354  2.67741  2.69355  4.24690  2.90347  2.73739  3.18146  2.89801  2.37887  2.77519  2.98518  4.58477  3.61503
          0.02673  4.03103  4.75338  0.61958  0.77255  0.48576  0.95510
    140   2.97484  4.70300  3.59960  3.46342  4.44072  3.38167  4.52574  4.02956  3.53481  3.63813  4.69645  3.75294  0.57931  3.91873  3.76022  3.14786  3.42939  3.65640  5.58125  4.56436    192 P - - -
          2.68618  4.42225  2.77519  2.73123  3.46354  2.40513  3.72494  3.29354  2.67741  2.69355  4.24690  2.90347  2.73739  3.18146  2.89801  2.37887  2.77519  2.98518  4.58477  3.61503
          0.02673  4.03103  4.75338  0.61958  0.77255  0.48576  0.95510
    141   2.81495  5.01283  2.69188  2.44054  3.92916  3.37906  2.11574  3.83030  2.51222  3.36965  4.24047  1.83225  3.89988  2.93294  2.89847  2.81141  3.08559  3.48069  5.27655  3.80172    193 n - - -
          2.68618  4.42225  2.77519  2.73123  3.46354  2.40513  3.72494  3.29354  2.67741  2.69355  4.24690  2.90347  2.73739  3.18146  2.89801  2.37887  2.77519  2.98518  4.58477  3.61503
          0.02673  4.03103  4.75338  0.61958  0.77255  0.48576  0.95510
    142   3.18263  4.96741  3.29382  3.07226  3.40626  3.59059  0.84773  3.91011  2.91147  3.38298  4.44037  3.47414  4.15315  3.44130  3.16634  3.25264  3.49247  3.64234  4.86866  3.35319    194 h - - -
          2.68618  4.42225  2.77519  2.73123  3.46354  2.40513  3.72494  3.29354  2.67741  2.69355  4.24690  2.90347  2.73739  3.18146  2.89801  2.37887  2.77519  2.98518  4.58477  3.61503
          0.02673  4.03103  4.75338  0.61958  0.77255  0.48576  0.95510
    143   3.00315  4.41766  4.47925  3.98497  1.89240  4.11259  4.34677  2.17848  3.86628  1.93554  3.22297  4.14656  4.47580  4.05597  4.03024  3.47392  3.26757  1.44954  4.76474  3.34018    195 v - - -
          2.68618  4.42225  2.77519  2.73123  3.46354  2.40513  3.72494  3.29354  2.67741  2.69355  4.24690  2.90347  2.73739  3.18146  2.89801  2.37887  2.77519  2.98518  4.58477  3.61503
          0.02673  4.03103  4.75338  0.61958  0.77255  0.48576  0.95510
    144   3.05886  4.39631  4.70233  4.15510  3.37772  4.35845  4.78091  1.61263  4.04099  1.89526  2.44283  4.38420  4.63875  4.25033  4.21711  3.70219  3.30236  1.29889  5.28618  4.13367    196 v - - -
          2.68618  4.42225  2.77519  2.73123  3.46354  2.40513  3.72494  3.29354  2.67741  2.69355  4.24690  2.90347  2.73739  3.18146  2.89801  2.37887  2.77519  2.98518  4.58477  3.61503
          0.02673  4.03103  4.75338  0.61958  0.77255  0.48576  0.95510
    145   1.81228  4.86325  2.63928  1.62792  4.32305  3.28159  3.80151  3.64949  2.65659  3.32689  4.19756  2.93050  3.84602  2.97944  3.09956  2.72305  3.00335  3.30042  5.58758  4.23929    197 e - - -
          2.68618  4.42225  2.77519  2.73123  3.46354  2.40513  3.72494  3.29354  2.67741  2.69355  4.24690  2.90347  2.73739  3.18146  2.89801  2.37887  2.77519  2.98518  4.58477  3.61503
          0.02673  4.03103  4.75338  0.61958  0.77255  0.48576  0.95510
    146   3.29913  4.78271  4.07636  3.63204  1.70077  4.10272  1.78972  3.34954  3.52580  2.79311  3.91378  3.74669  4.44338  3.70593  3.75014  3.40975  3.52181  3.18905  3.76199  1.66606    198 y - - -
          2.68618  4.42225  2.77519  2.73123  3.46354  2.40513  3.72494  3.29354  2.67741  2.69355  4.24690  2.90347  2.73739  3.18146  2.89801  2.37887  2.77519  2.98518  4.58477  3.61503
          0.02673  4.03103  4.75338  0.61958  0.77255  0.48576  0.95510
    147   2.83545  4.92045  3.29430  2.67585  4.10612  3.58190  3.62390  3.59460  1.82996  3.14613  4.00529  3.12328  3.95369  2.79003  1.73880  2.87178  3.03343  3.29849  5.26273  2.80096    199 r - - -
          2.68618  4.42225  2.77519  2.73123  3.46354  2.40513  3.72494  3.29354  2.67741  2.69355  4.24690  2.90347  2.73739  3.18146  2.89801  2.37887  2.77519  2.98518  4.58477  3.61503
          0.02673  4.03103  4.75338  0.61958  0.77255  0.48576  0.95510
    148   3.25013  4.56869  4.83515  4.31161  3.23494  4.53530  4.90978  1.36742  4.14536  1.22174  3.05694  4.56085  4.76650  4.34509  4.29653  3.91050  3.49050  1.94843  5.28235  4.13207    200 l - - -
          2.68618  4.42225  2.77519  2.73123  3.46354  2.40513  3.72494  3.29354  2.67741  2.69355  4.24690  2.90347  2.73739  3.18146  2.89801  2.37887  2.77519  2.98518  4.58477  3.61503
          0.02673  4.03103  4.75338  0.61958  0.77255  0.48576  0.95510
    149   2.73012  4.31244  3.95469  3.42777  3.47033  3.75893  4.24972  2.23800  3.31448  1.85989  3.37244  3.72894  4.19556  3.62813  3.59328  3.08969  2.01491  1.77052  5.12952  3.91743    201 v - - -
          2.68618  4.42225  2.77519  2.73123  3.46354  2.40513  3.72494  3.29354  2.67741  2.69355  4.24690  2.90347  2.73739  3.18146  2.89801  2.37887  2.77519  2.98518  4.58477  3.61503
          0.02673  4.03103  4.75338  0.61958  0.77255  0.48576  0.95510
    150   3.19166  5.01463  3.69920  3.18043  4.40974  3.64586  3.95016  3.96464  2.31642  3.45186  4.45015  3.52688  4.14276  3.16458  0.76124  3.26956  3.44811  3.68229  5.42973  4.30507    202 r - - -
          2.68618  4.42225  2.77519  2.73123  3.46354  2.40513  3.72494  3.29354  2.67741  2.69355  4.24690  2.90347  2.73739  3.18146  2.89801  2.37887  2.77519  2.98518  4.58477  3.61503
          0.02673  4.03103  4.75338  0.61958  0.77255  0.48576  0.95510
    151   2.57492  4.26376  3.89828  3.46371  3.72137  3.47956  4.33791  2.36534  3.36213  2.53926  3.63196  3.67319  4.06970  3.69281  3.63252  2.88338  1.78606  1.52547  5.33457  4.11095    203 v - - -
          2.68618  4.42225  2.77519  2.73123  3.46354  2.40513  3.72494  3.29354  2.67741  2.69355  4.24690  2.90347  2.73739  3.18146  2.89801  2.37887  2.77519  2.98518  4.58477  3.61503
          0.02673  4.03103  4.75338  0.61958  0.77255  0.48576  0.95510
    152   2.86861  5.35046  1.87272  1.80109  4.68413  1.89769  3.75522  4.17920  2.72281  3.69744  4.52838  2.73589  3.84160  2.91494  3.28765  2.78624  3.15320  3.76169  5.86877  4.40362    204 e - - -
          2.68618  4.42225  2.77519  2.73123  3.46354  2.40513  3.72494  3.29354  2.67741  2.69355  4.24690  2.90347  2.73739  3.18146  2.89801  2.37887  2.77519  2.98518  4.58477  3.61503
          0.02673  4.03103  4.75338  0.61958  0.77255  0.48576  0.95510
    153   2.92340  5.41058  1.45302  2.15299  4.73006  3.23337  3.79856  4.28837  2.81264  3.80626  4.66034  1.74036  3.85899  2.97173  3.39256  2.83001  3.22598  3.85754  5.93479  4.44119    205 d - - -
          2.68618  4.42225  2.77519  2.73123  3.46354  2.40513  3.72494  3.29354  2.67741  2.69355  4.24690  2.90347  2.73739  3.18146  2.89801  2.37887  2.77519  2.98518  4.58477  3.61503
          0.02673  4.03103  4.75338  0.61958  0.77255  0.48576  0.95510
    154   2.83779  5.11042  1.50310  2.30649  4.67128  1.68613  3.89468  4.19161  2.91225  3.75132  4.60959  2.85399  3.86360  3.08396  3.45459  2.81114  3.18128  3.74579  5.86393  4.47511    206 d - - -
          2.68618  4.42225  2.77519  2.73123  3.46354  2.40513  3.72494  3.29354  2.67741  2.69355  4.24690  2.90347  2.73739  3.18146  2.89801  2.37887  2.77519  2.98518  4.58477  3.61503
          0.02673  4.03103  4.75338  0.61958  0.77255  0.48576  0.95510
    155   2.25160  5.30919  1.58748  1.82984  4.62973  3.26182  3.73327  4.09634  2.67516  3.63452  4.46024  2.74409  3.83405  2.88754  3.22948  2.76270  3.11388  3.69069  5.81788  4.36080    207 d - - -
          2.68618  4.42225  2.77519  2.73123  3.46354  2.40513  3.72494  3.29354  2.67741  2.69355  4.24690  2.90347  2.73739  3.18146  2.89801  2.37887  2.77519  2.98518  4.58477  3.61503
          0.02673  4.03103  4.75338  0.61958  0.77255  0.48576  0.95510
    156   2.74106  5.14731  2.23108  2.29945  4.43444  3.36387  2.77206  3.92074  1.74062  3.42889  4.22588  2.84425  3.82670  2.76085  2.79664  2.70049  2.97876  3.53146  5.56490  4.17636    208 k - - -
          2.68618  4.42225  2.77519  2.73123  3.46354  2.40513  3.72494  3.29354  2.67741  2.69355  4.24690  2.90347  2.73739  3.18146  2.89801  2.37887  2.77519  2.98518  4.58477  3.61503
          0.02673  4.03103  4.75338  0.61958  0.77255  0.48576  0.95510
    157   2.83404  2.27903  4.52891  3.99178  3.45474  4.02602  4.57410  1.62205  3.86546  2.19514  3.34731  4.14997  4.42280  4.10192  4.03920  3.38099  3.10903  1.51381  5.18372  3.98421    209 v - - -
          2.68618  4.42225  2.77519  2.73123  3.46354  2.40513  3.72494  3.29354  2.67741  2.69355  4.24690  2.90347  2.73739  3.18146  2.89801  2.37887  2.77519  2.98518  4.58477  3.61503
          0.02673  4.03103  4.75338  0.61958  0.77255  0.48576  0.95510
    158   2.89339  5.31736  1.83609  2.19056  4.65081  3.23969  3.80268  4.20899  2.79514  3.74540  4.60059  1.41681  3.85932  2.97921  3.35000  2.81902  3.19917  3.78781  5.86876  4.39703    210 n - - -
          2.68618  4.42225  2.77519  2.73123  3.46354  2.40513  3.72494  3.29354  2.67741  2.69355  4.24690  2.90347  2.73739  3.18146  2.89801  2.37887  2.77519  2.98518  4.58477  3.61503
          0.02673  4.03103  4.75338  0.61958  0.77255  0.48576  0.95510
    159   2.81245  4.33420  4.12407  3.59417  3.39295  3.88728  4.35465  2.16689  3.46648  1.49816  3.27607  3.87456  4.29219  3.76163  3.71551  3.22177  2.42014  1.75555  5.12628  3.93416    211 l - - -
          2.68618  4.42225  2.77519  2.73123  3.46354  2.40513  3.72494  3.29354  2.67741  2.69355  4.24690  2.90347  2.73739  3.18146  2.89801  2.37887  2.77519  2.98518  4.58477  3.61503
          0.02673  4.03103  4.75338  0.61958  0.77255  0.48576  0.95510
    160   2.93470  4.43638  4.34257  4.01316  3.67053  3.88533  4.78893  2.05539  3.88338  2.33165  3.61405  4.17682  4.43888  4.23292  4.08022  3.40087  3.29357  0.84623  5.48091  4.22127    212 v - - -
          2.68618  4.42225  2.77519  2.73123  3.46354  2.40513  3.72494  3.29354  2.67741  2.69355  4.24690  2.90347  2.73739  3.18146  2.89801  2.37887  2.77519  2.98518  4.58477  3.61503
          0.02673  4.03103  4.75338  0.61958  0.77255  0.48576  0.95510
    161   2.72067  4.55027  3.30464  1.98027  3.62741  3.62282  3.87758  2.27199  2.74985  2.12484  3.53078  3.27128  4.01497  3.11997  3.12585  2.89662  2.95732  2.50917  5.14648  3.87731    213 e - - -
          2.68618  4.42225  2.77519  2.73123  3.46354  2.40513  3.72494  3.29354  2.67741  2.69355  4.24690  2.90347  2.73739  3.18146  2.89801  2.37887  2.77519  2.98518  4.58477  3.61503
          0.02673  4.03103  4.75338  0.61958  0.77255  0.48576  0.95510
    162   2.64374  4.36405  3.49864  2.94262  3.46286  3.61037  3.87473  2.25622  2.83004  2.08864  3.39631  3.34922  3.99381  2.61224  3.16513  2.87384  2.37447  2.48345  4.96669  3.73486    214 l - - -
          2.68618  4.42225  2.77519  2.73123  3.46354  2.40513  3.72494  3.29354  2.67741  2.69355  4.24690  2.90347  2.73739  3.18146  2.89801  2.37887  2.77519  2.98518  4.58477  3.61503
          0.02673  4.03103  4.75338  0.61958  0.77255  0.48576  0.95510
    163   1.70446  4.58284  3.06194  2.70366  3.84625  3.31476  2.14122  3.43332  2.66015  3.08069  3.97217  3.12700  3.86485  3.07490  3.01427  2.70394  2.92317  3.10749  5.22563  3.85987    215 a - - -
          2.68618  4.42225  2.77519  2.73123  3.46354  2.40513  3.72494  3.29354  2.67741  2.69355  4.24690  2.90347  2.73739  3.18146  2.89801  2.37887  2.77519  2.98518  4.58477  3.61503
          0.02673  4.03103  4.75338  0.61958  0.77255  0.48576  0.95510
    164   3.09676  5.23230  2.56550  0.81925  4.59965  3.38212  3.98621  4.08547  2.88733  3.67830  4.64817  3.03386  3.99509  3.20036  3.31055  3.06468  3.40313  3.75400  5.74132  4.46702    216 e - - -
          2.68618  4.42225  2.77519  2.73123  3.46354  2.40513  3.72494  3.29354  2.67741  2.69355  4.24690  2.90347  2.73739  3.18146  2.89801  2.37887  2.77519  2.98518  4.58477  3.61503
          0.02673  4.03103  4.75338  0.61958  0.77255  0.48576  0.95510
    165   1.66802  4.32677  3.68453  3.21846  3.23142  3.46876  3.94332  2.92667  3.06516  2.60028  3.59952  3.48702  3.99252  3.42353  3.33289  2.84932  2.93876  2.70486  2.19369  3.36215    217 a - - -
          2.68618  4.42225  2.77519  2.73123  3.46354  2.40513  3.72494  3.29354  2.67741  2.69355  4.24690  2.90347  2.73739  3.18146  2.89801  2.37887  2.77519  2.98518  4.58477  3.61503
          0.02673  4.03103  4.75338  0.61958  0.77255  0.48576  0.95510
    166   2.57927  4.67949  2.87268  2.53461  4.09180  2.50810  2.11951  3.61888  2.60022  3.22466  4.06215  3.00309  3.81592  2.96884  3.00793  2.17089  2.89686  3.24525  5.39157  4.04100    218 h - - -
          2.68618  4.42225  2.77519  2.73123  3.46354  2.40513  3.72494  3.29354  2.67741  2.69355  4.24690  2.90347  2.73739  3.18146  2.89801  2.37887  2.77519  2.98518  4.58477  3.61503
          0.02673  4.03103  4.75338  0.61958  0.77255  0.48576  0.95510
    167   2.68786  4.71719  3.01215  2.19557  3.95788  3.46683  3.70971  3.21283  2.11445  2.94819  3.82954  3.05176  3.89259  2.89881  2.82039  2.76534  2.92464  2.04225  5.26444  3.97568    219 v - - -
          2.68618  4.42225  2.77519  2.73123  3.46354  2.40513  3.72494  3.29354  2.67741  2.69355  4.24690  2.90347  2.73739  3.18146  2.89801  2.37887  2.77519  2.98518  4.58477  3.61503
          0.02673  4.03103  4.75338  0.61958  0.77255  0.48576  0.95510
    168   1.63500  4.51630  2.91957  2.68328  4.26746  3.13919  3.96077  3.65962  2.84890  3.35676  4.21531  1.76814  3.79196  3.17634  3.23998  2.59098  2.88354  3.23389  5.58002  4.26809    220 a - - -
          2.68618  4.42225  2.77519  2.73123  3.46354  2.40513  3.72494  3.29354  2.67741  2.69355  4.24690  2.90347  2.73739  3.18146  2.89801  2.37887  2.77519  2.98518  4.58477  3.61503
          0.02673  4.03103  4.75338  0.61958  0.77255  0.48576  0.95510
    169   2.75949  4.44855  3.67071  3.26081  1.81148  3.57926  3.94842  2.93054  3.22051  2.49285  3.60015  3.55147  1.91901  3.51370  3.50592  2.98153  3.07250  2.76480  4.64986  3.15912    221 f - - -
          2.68618  4.42225  2.77519  2.73123  3.46354  2.40513  3.72494  3.29354  2.67741  2.69355  4.24690  2.90347  2.73739  3.18146  2.89801  2.37887  2.77519  2.98518  4.58477  3.61503
          0.01807  4.02237        *  0.61958  0.77255  0.00000        *
//
